signal,peaks,instant_rr,time,Channel_0
91.0,0.0,,0.0,0.0
90.0,0.0,,0.013333333333333334,0.0
88.0,0.0,,0.02666666666666667,0.0
87.0,0.0,,0.04,0.0
86.0,0.0,,0.05333333333333334,0.0
85.0,0.0,,0.06666666666666667,0.0
84.0,0.0,,0.08,0.0
83.0,0.0,,0.09333333333333334,0.0
82.0,0.0,,0.10666666666666667,0.0
81.0,0.0,,0.12,0.0
81.0,0.0,,0.13333333333333333,0.0
81.0,0.0,,0.14666666666666667,0.0
80.0,0.0,,0.16,0.0
80.0,0.0,,0.17333333333333334,0.0
79.0,0.0,,0.18666666666666668,0.0
79.0,0.0,,0.2,0.0
79.0,0.0,,0.21333333333333335,0.0
79.0,0.0,,0.22666666666666666,0.0
79.0,0.0,,0.24,0.0
79.0,0.0,,0.25333333333333335,0.0
79.0,0.0,,0.26666666666666666,0.0
78.0,0.0,,0.28,0.0
78.0,0.0,,0.29333333333333333,0.0
78.0,0.0,,0.30666666666666664,0.0
78.0,0.0,,0.32,0.0
78.0,0.0,,0.3333333333333333,0.0
78.0,0.0,,0.3466666666666667,0.0
78.0,0.0,,0.36,0.0
78.0,0.0,,0.37333333333333335,0.0
78.0,0.0,,0.38666666666666666,0.0
77.0,0.0,,0.4,0.0
77.0,0.0,,0.41333333333333333,0.0
77.0,0.0,,0.4266666666666667,0.0
78.0,0.0,,0.44,0.0
78.0,0.0,,0.4533333333333333,0.0
78.0,0.0,,0.4666666666666667,0.0
79.0,0.0,,0.48,0.0
79.0,0.0,,0.49333333333333335,0.0
80.0,0.0,,0.5066666666666667,0.0
80.0,0.0,,0.52,0.0
81.0,0.0,,0.5333333333333333,0.0
81.0,0.0,,0.5466666666666666,0.0
82.0,0.0,,0.56,0.0
83.0,0.0,,0.5733333333333334,0.0
87.0,0.0,,0.5866666666666667,0.0
94.0,0.0,,0.6,0.0
103.0,0.0,,0.6133333333333333,0.0
116.0,0.0,,0.6266666666666667,0.0
129.0,0.0,,0.64,0.0
141.0,0.0,,0.6533333333333333,0.0
150.0,0.0,,0.6666666666666666,0.0
156.0,0.0,,0.68,0.0
158.0,0.0,,0.6933333333333334,0.0
158.0,0.0,,0.7066666666666667,0.0
156.0,0.0,,0.72,0.0
153.0,0.0,,0.7333333333333333,0.0
150.0,0.0,,0.7466666666666667,0.0
146.0,0.0,,0.76,0.0
143.0,0.0,,0.7733333333333333,0.0
140.0,0.0,,0.7866666666666666,0.0
138.0,0.0,,0.8,0.0
135.0,0.0,,0.8133333333333334,0.0
133.0,0.0,,0.8266666666666667,0.0
130.0,0.0,,0.84,0.0
126.0,0.0,,0.8533333333333334,0.0
123.0,0.0,,0.8666666666666667,0.0
120.0,0.0,,0.88,0.0
117.0,0.0,,0.8933333333333333,0.0
114.0,0.0,,0.9066666666666666,0.0
112.0,0.0,,0.92,0.0
110.0,0.0,,0.9333333333333333,0.0
109.0,0.0,,0.9466666666666667,0.0
107.0,0.0,,0.96,0.0
105.0,0.0,,0.9733333333333334,0.0
104.0,0.0,,0.9866666666666667,0.0
102.0,0.0,,1.0,0.0
100.0,0.0,,1.0133333333333334,0.0
98.0,0.0,,1.0266666666666666,0.0
97.0,0.0,,1.04,0.0
95.0,0.0,,1.0533333333333332,0.0
93.0,0.0,,1.0666666666666667,0.0
91.0,0.0,,1.08,0.0
90.0,0.0,,1.0933333333333333,0.0
89.0,0.0,,1.1066666666666667,0.0
87.0,0.0,,1.12,0.0
86.0,0.0,,1.1333333333333333,0.0
85.0,0.0,,1.1466666666666667,0.0
84.0,0.0,,1.16,0.0
84.0,0.0,,1.1733333333333333,0.0
83.0,0.0,,1.1866666666666668,0.0
82.0,0.0,,1.2,0.0
82.0,0.0,,1.2133333333333334,0.0
82.0,0.0,,1.2266666666666666,0.0
81.0,0.0,,1.24,0.0
81.0,0.0,,1.2533333333333334,0.0
81.0,0.0,,1.2666666666666666,0.0
80.0,0.0,,1.28,0.0
80.0,0.0,,1.2933333333333332,0.0
80.0,0.0,,1.3066666666666666,0.0
80.0,0.0,,1.32,0.0
79.0,0.0,,1.3333333333333333,0.0
79.0,0.0,,1.3466666666666667,0.0
79.0,0.0,,1.36,0.0
78.0,0.0,,1.3733333333333333,0.0
78.0,0.0,,1.3866666666666667,0.0
78.0,0.0,,1.4,0.0
78.0,0.0,,1.4133333333333333,0.0
78.0,0.0,,1.4266666666666667,0.0
78.0,0.0,,1.44,0.0
78.0,0.0,,1.4533333333333334,0.0
78.0,0.0,,1.4666666666666666,0.0
78.0,0.0,,1.48,0.0
78.0,0.0,,1.4933333333333334,0.0
79.0,0.0,,1.5066666666666666,0.0
79.0,0.0,,1.52,0.0
79.0,0.0,,1.5333333333333334,0.0
80.0,0.0,,1.5466666666666666,0.0
80.0,0.0,,1.56,0.0
80.0,0.0,,1.5733333333333333,0.0
81.0,0.0,,1.5866666666666667,0.0
81.0,0.0,,1.6,0.0
82.0,0.0,,1.6133333333333333,0.0
82.0,0.0,,1.6266666666666667,0.0
84.0,0.0,,1.64,0.0
88.0,0.0,,1.6533333333333333,0.0
94.0,0.0,,1.6666666666666667,0.0
104.0,0.0,,1.68,0.0
116.0,0.0,,1.6933333333333334,0.0
129.0,0.0,,1.7066666666666668,0.0
140.0,0.0,,1.72,0.0
148.0,0.0,,1.7333333333333334,0.0
153.0,0.0,,1.7466666666666666,0.0
155.0,0.0,,1.76,0.0
154.0,1.0,,1.7733333333333334,0.0
152.0,0.0,,1.7866666666666666,0.0
149.0,0.0,,1.8,0.0
146.0,0.0,,1.8133333333333332,0.0
143.0,0.0,,1.8266666666666667,0.0
140.0,0.0,,1.84,0.0
137.0,0.0,,1.8533333333333333,0.0
135.0,0.0,,1.8666666666666667,0.0
132.0,0.0,,1.88,0.0
130.0,0.0,,1.8933333333333333,0.0
127.0,0.0,,1.9066666666666667,0.0
124.0,0.0,,1.92,0.0
121.0,0.0,,1.9333333333333333,0.0
117.0,0.0,,1.9466666666666668,0.0
114.0,0.0,,1.96,0.0
112.0,0.0,,1.9733333333333334,0.0
110.0,0.0,,1.9866666666666666,0.0
108.0,0.0,,2.0,0.0
107.0,0.0,,2.013333333333333,0.0
105.0,0.0,,2.026666666666667,0.0
104.0,0.0,,2.04,0.0
102.0,0.0,,2.0533333333333332,0.0
100.0,0.0,,2.066666666666667,0.0
99.0,0.0,,2.08,0.0
97.0,0.0,,2.0933333333333333,0.0
95.0,0.0,,2.1066666666666665,0.0
94.0,0.0,,2.12,0.0
92.0,0.0,,2.1333333333333333,0.0
91.0,0.0,,2.1466666666666665,0.0
89.0,0.0,,2.16,0.0
88.0,0.0,,2.1733333333333333,0.0
87.0,0.0,,2.1866666666666665,0.0
86.0,0.0,,2.2,0.0
86.0,0.0,,2.2133333333333334,0.0
85.0,0.0,,2.2266666666666666,0.0
84.0,0.0,,2.24,0.0
84.0,0.0,,2.2533333333333334,0.0
84.0,0.0,,2.2666666666666666,0.0
83.0,0.0,,2.28,0.0
83.0,0.0,,2.2933333333333334,0.0
83.0,0.0,,2.3066666666666666,0.0
83.0,0.0,,2.32,0.0
83.0,0.0,,2.3333333333333335,0.0
83.0,0.0,,2.3466666666666667,0.0
83.0,0.0,,2.36,0.0
82.0,0.0,,2.3733333333333335,0.0
82.0,0.0,,2.3866666666666667,0.0
82.0,0.0,,2.4,0.0
82.0,0.0,,2.4133333333333336,0.0
82.0,0.0,,2.4266666666666667,0.0
82.0,0.0,,2.44,0.0
82.0,0.0,,2.453333333333333,0.0
82.0,0.0,,2.466666666666667,0.0
82.0,0.0,,2.48,0.0
82.0,0.0,,2.493333333333333,0.0
82.0,0.0,,2.506666666666667,0.0
82.0,0.0,,2.52,0.0
82.0,0.0,,2.533333333333333,0.0
82.0,0.0,,2.546666666666667,0.0
82.0,0.0,,2.56,0.0
82.0,0.0,,2.5733333333333333,0.0
83.0,0.0,,2.5866666666666664,0.0
83.0,0.0,,2.6,0.0
83.0,0.0,,2.6133333333333333,0.0
83.0,0.0,,2.6266666666666665,0.0
84.0,0.0,,2.64,0.0
85.0,0.0,,2.6533333333333333,0.0
89.0,0.0,,2.6666666666666665,0.0
95.0,0.0,,2.68,0.0
104.0,0.0,,2.6933333333333334,0.0
114.0,0.0,,2.7066666666666666,0.0
126.0,0.0,,2.72,0.0
136.0,0.0,,2.7333333333333334,0.0
144.0,0.0,,2.7466666666666666,0.0
149.0,0.0,,2.76,0.0
151.0,0.0,,2.7733333333333334,0.0
150.0,1.0,1013.3333333333334,2.7866666666666666,0.0
149.0,0.0,1013.3333333333334,2.8,0.0
146.0,0.0,1013.3333333333334,2.8133333333333335,0.0
143.0,0.0,1013.3333333333334,2.8266666666666667,0.0
140.0,0.0,1013.3333333333334,2.84,0.0
138.0,0.0,1013.3333333333334,2.8533333333333335,0.0
136.0,0.0,1013.3333333333334,2.8666666666666667,0.0
133.0,0.0,1013.3333333333334,2.88,0.0
131.0,0.0,1013.3333333333334,2.8933333333333335,0.0
129.0,0.0,1013.3333333333334,2.9066666666666667,0.0
126.0,0.0,1013.3333333333334,2.92,0.0
123.0,0.0,1013.3333333333334,2.933333333333333,0.0
120.0,0.0,1013.3333333333334,2.9466666666666668,0.0
117.0,0.0,1013.3333333333334,2.96,0.0
114.0,0.0,1013.3333333333334,2.973333333333333,0.0
111.0,0.0,1013.3333333333334,2.986666666666667,0.0
109.0,0.0,1013.3333333333334,3.0,0.0
108.0,0.0,1013.3333333333334,3.013333333333333,0.0
106.0,0.0,1013.3333333333334,3.026666666666667,0.0
105.0,0.0,1013.3333333333334,3.04,0.0
103.0,0.0,1013.3333333333334,3.0533333333333332,0.0
102.0,0.0,1013.3333333333334,3.066666666666667,0.0
100.0,0.0,1013.3333333333334,3.08,0.0
99.0,0.0,1013.3333333333334,3.0933333333333333,0.0
97.0,0.0,1013.3333333333334,3.1066666666666665,0.0
95.0,0.0,1013.3333333333334,3.12,0.0
94.0,0.0,1013.3333333333334,3.1333333333333333,0.0
92.0,0.0,1013.3333333333334,3.1466666666666665,0.0
91.0,0.0,1013.3333333333334,3.16,0.0
89.0,0.0,1013.3333333333334,3.1733333333333333,0.0
88.0,0.0,1013.3333333333334,3.1866666666666665,0.0
87.0,0.0,1013.3333333333334,3.2,0.0
86.0,0.0,1013.3333333333334,3.2133333333333334,0.0
85.0,0.0,1013.3333333333334,3.2266666666666666,0.0
84.0,0.0,1013.3333333333334,3.24,0.0
84.0,0.0,1013.3333333333334,3.2533333333333334,0.0
83.0,0.0,1013.3333333333334,3.2666666666666666,2.0
83.0,0.0,1013.3333333333334,3.28,0.0
82.0,0.0,1013.3333333333334,3.2933333333333334,0.0
82.0,0.0,1013.3333333333334,3.3066666666666666,0.0
82.0,0.0,1013.3333333333334,3.32,0.0
81.0,0.0,1013.3333333333334,3.3333333333333335,0.0
81.0,0.0,1013.3333333333334,3.3466666666666667,0.0
81.0,0.0,1013.3333333333334,3.36,0.0
80.0,0.0,1013.3333333333334,3.3733333333333335,0.0
80.0,0.0,1013.3333333333334,3.3866666666666667,0.0
79.0,0.0,1013.3333333333334,3.4,0.0
79.0,0.0,1013.3333333333334,3.4133333333333336,0.0
79.0,0.0,1013.3333333333334,3.4266666666666667,0.0
78.0,0.0,1013.3333333333334,3.44,0.0
78.0,0.0,1013.3333333333334,3.453333333333333,0.0
78.0,0.0,1013.3333333333334,3.466666666666667,0.0
78.0,0.0,1013.3333333333334,3.48,0.0
78.0,0.0,1013.3333333333334,3.493333333333333,0.0
78.0,0.0,1013.3333333333334,3.506666666666667,0.0
78.0,0.0,1013.3333333333334,3.52,0.0
78.0,0.0,1013.3333333333334,3.533333333333333,0.0
78.0,0.0,1013.3333333333334,3.546666666666667,0.0
78.0,0.0,1013.3333333333334,3.56,0.0
79.0,0.0,1013.3333333333334,3.5733333333333333,0.0
79.0,0.0,1013.3333333333334,3.5866666666666664,0.0
79.0,0.0,1013.3333333333334,3.6,0.0
79.0,0.0,1013.3333333333334,3.6133333333333333,0.0
80.0,0.0,1013.3333333333334,3.6266666666666665,0.0
82.0,0.0,1013.3333333333334,3.64,0.0
86.0,0.0,1013.3333333333334,3.6533333333333333,0.0
93.0,0.0,1013.3333333333334,3.6666666666666665,0.0
103.0,0.0,1013.3333333333334,3.68,0.0
115.0,0.0,1013.3333333333334,3.6933333333333334,0.0
126.0,0.0,1013.3333333333334,3.7066666666666666,0.0
136.0,0.0,1013.3333333333334,3.72,0.0
143.0,0.0,1013.3333333333334,3.7333333333333334,0.0
146.0,0.0,1013.3333333333334,3.7466666666666666,0.0
148.0,0.0,1013.3333333333334,3.76,0.0
147.0,1.0,986.6666666666667,3.7733333333333334,0.0
145.0,0.0,986.6666666666667,3.7866666666666666,0.0
143.0,0.0,986.6666666666667,3.8,0.0
140.0,0.0,986.6666666666667,3.8133333333333335,0.0
138.0,0.0,986.6666666666667,3.8266666666666667,0.0
136.0,0.0,986.6666666666667,3.84,0.0
134.0,0.0,986.6666666666667,3.8533333333333335,0.0
132.0,0.0,986.6666666666667,3.8666666666666667,0.0
130.0,0.0,986.6666666666667,3.88,0.0
128.0,0.0,986.6666666666667,3.8933333333333335,0.0
125.0,0.0,986.6666666666667,3.9066666666666667,0.0
122.0,0.0,986.6666666666667,3.92,0.0
119.0,0.0,986.6666666666667,3.933333333333333,0.0
116.0,0.0,986.6666666666667,3.9466666666666668,0.0
113.0,0.0,986.6666666666667,3.96,0.0
111.0,0.0,986.6666666666667,3.973333333333333,0.0
109.0,0.0,986.6666666666667,3.986666666666667,0.0
107.0,0.0,986.6666666666667,4.0,0.0
106.0,0.0,986.6666666666667,4.013333333333334,0.0
104.0,0.0,986.6666666666667,4.026666666666666,0.0
103.0,0.0,986.6666666666667,4.04,0.0
101.0,0.0,986.6666666666667,4.053333333333334,0.0
100.0,0.0,986.6666666666667,4.066666666666666,0.0
98.0,0.0,986.6666666666667,4.08,0.0
97.0,0.0,986.6666666666667,4.093333333333334,0.0
95.0,0.0,986.6666666666667,4.1066666666666665,0.0
94.0,0.0,986.6666666666667,4.12,0.0
92.0,0.0,986.6666666666667,4.133333333333334,0.0
91.0,0.0,986.6666666666667,4.1466666666666665,0.0
90.0,0.0,986.6666666666667,4.16,0.0
89.0,0.0,986.6666666666667,4.173333333333333,0.0
88.0,0.0,986.6666666666667,4.1866666666666665,0.0
87.0,0.0,986.6666666666667,4.2,0.0
86.0,0.0,986.6666666666667,4.213333333333333,0.0
85.0,0.0,986.6666666666667,4.226666666666667,0.0
85.0,0.0,986.6666666666667,4.24,0.0
84.0,0.0,986.6666666666667,4.253333333333333,0.0
83.0,0.0,986.6666666666667,4.266666666666667,0.0
83.0,0.0,986.6666666666667,4.28,0.0
82.0,0.0,986.6666666666667,4.293333333333333,0.0
82.0,0.0,986.6666666666667,4.306666666666667,0.0
82.0,0.0,986.6666666666667,4.32,0.0
81.0,0.0,986.6666666666667,4.333333333333333,0.0
81.0,0.0,986.6666666666667,4.346666666666667,0.0
81.0,0.0,986.6666666666667,4.36,0.0
80.0,0.0,986.6666666666667,4.373333333333333,0.0
80.0,0.0,986.6666666666667,4.386666666666667,0.0
79.0,0.0,986.6666666666667,4.4,0.0
79.0,0.0,986.6666666666667,4.413333333333333,0.0
79.0,0.0,986.6666666666667,4.426666666666667,0.0
78.0,0.0,986.6666666666667,4.44,0.0
78.0,0.0,986.6666666666667,4.453333333333333,0.0
78.0,0.0,986.6666666666667,4.466666666666667,0.0
78.0,0.0,986.6666666666667,4.48,0.0
78.0,0.0,986.6666666666667,4.493333333333333,0.0
78.0,0.0,986.6666666666667,4.506666666666667,0.0
78.0,0.0,986.6666666666667,4.52,0.0
78.0,0.0,986.6666666666667,4.533333333333333,0.0
78.0,0.0,986.6666666666667,4.546666666666667,0.0
78.0,0.0,986.6666666666667,4.56,0.0
78.0,0.0,986.6666666666667,4.573333333333333,0.0
78.0,0.0,986.6666666666667,4.586666666666667,0.0
79.0,0.0,986.6666666666667,4.6,0.0
79.0,0.0,986.6666666666667,4.613333333333333,0.0
79.0,0.0,986.6666666666667,4.626666666666667,0.0
80.0,0.0,986.6666666666667,4.64,0.0
80.0,0.0,986.6666666666667,4.653333333333333,0.0
80.0,0.0,986.6666666666667,4.666666666666667,0.0
81.0,0.0,986.6666666666667,4.68,0.0
81.0,0.0,986.6666666666667,4.693333333333333,0.0
81.0,0.0,986.6666666666667,4.706666666666667,0.0
81.0,0.0,986.6666666666667,4.72,0.0
82.0,0.0,986.6666666666667,4.733333333333333,0.0
85.0,0.0,986.6666666666667,4.746666666666667,0.0
90.0,0.0,986.6666666666667,4.76,0.0
98.0,0.0,986.6666666666667,4.773333333333333,0.0
109.0,0.0,986.6666666666667,4.786666666666667,0.0
122.0,0.0,986.6666666666667,4.8,0.0
134.0,0.0,986.6666666666667,4.8133333333333335,0.0
144.0,0.0,986.6666666666667,4.826666666666667,0.0
150.0,0.0,986.6666666666667,4.84,0.0
154.0,0.0,986.6666666666667,4.8533333333333335,0.0
155.0,0.0,986.6666666666667,4.866666666666666,0.0
154.0,1.0,1106.6666666666667,4.88,0.0
152.0,0.0,1106.6666666666667,4.8933333333333335,0.0
149.0,0.0,1106.6666666666667,4.906666666666666,0.0
147.0,0.0,1106.6666666666667,4.92,0.0
144.0,0.0,1106.6666666666667,4.933333333333334,0.0
142.0,0.0,1106.6666666666667,4.946666666666666,0.0
140.0,0.0,1106.6666666666667,4.96,0.0
138.0,0.0,1106.6666666666667,4.973333333333334,0.0
135.0,0.0,1106.6666666666667,4.986666666666666,0.0
133.0,0.0,1106.6666666666667,5.0,0.0
130.0,0.0,1106.6666666666667,5.013333333333334,0.0
127.0,0.0,1106.6666666666667,5.026666666666666,0.0
123.0,0.0,1106.6666666666667,5.04,0.0
120.0,0.0,1106.6666666666667,5.053333333333334,0.0
117.0,0.0,1106.6666666666667,5.066666666666666,0.0
115.0,0.0,1106.6666666666667,5.08,0.0
113.0,0.0,1106.6666666666667,5.093333333333334,0.0
111.0,0.0,1106.6666666666667,5.1066666666666665,0.0
109.0,0.0,1106.6666666666667,5.12,0.0
107.0,0.0,1106.6666666666667,5.133333333333334,0.0
106.0,0.0,1106.6666666666667,5.1466666666666665,0.0
104.0,0.0,1106.6666666666667,5.16,0.0
102.0,0.0,1106.6666666666667,5.173333333333333,0.0
100.0,0.0,1106.6666666666667,5.1866666666666665,0.0
99.0,0.0,1106.6666666666667,5.2,0.0
97.0,0.0,1106.6666666666667,5.213333333333333,0.0
95.0,0.0,1106.6666666666667,5.226666666666667,0.0
93.0,0.0,1106.6666666666667,5.24,0.0
92.0,0.0,1106.6666666666667,5.253333333333333,0.0
90.0,0.0,1106.6666666666667,5.266666666666667,0.0
89.0,0.0,1106.6666666666667,5.28,0.0
88.0,0.0,1106.6666666666667,5.293333333333333,0.0
87.0,0.0,1106.6666666666667,5.306666666666667,0.0
86.0,0.0,1106.6666666666667,5.32,0.0
85.0,0.0,1106.6666666666667,5.333333333333333,0.0
84.0,0.0,1106.6666666666667,5.346666666666667,0.0
83.0,0.0,1106.6666666666667,5.36,0.0
83.0,0.0,1106.6666666666667,5.373333333333333,0.0
82.0,0.0,1106.6666666666667,5.386666666666667,0.0
82.0,0.0,1106.6666666666667,5.4,0.0
81.0,0.0,1106.6666666666667,5.413333333333333,0.0
81.0,0.0,1106.6666666666667,5.426666666666667,0.0
81.0,0.0,1106.6666666666667,5.44,0.0
80.0,0.0,1106.6666666666667,5.453333333333333,0.0
80.0,0.0,1106.6666666666667,5.466666666666667,0.0
80.0,0.0,1106.6666666666667,5.48,0.0
79.0,0.0,1106.6666666666667,5.493333333333333,0.0
79.0,0.0,1106.6666666666667,5.506666666666667,0.0
78.0,0.0,1106.6666666666667,5.52,0.0
78.0,0.0,1106.6666666666667,5.533333333333333,0.0
78.0,0.0,1106.6666666666667,5.546666666666667,0.0
78.0,0.0,1106.6666666666667,5.56,0.0
77.0,0.0,1106.6666666666667,5.573333333333333,0.0
77.0,0.0,1106.6666666666667,5.586666666666667,0.0
77.0,0.0,1106.6666666666667,5.6,0.0
77.0,0.0,1106.6666666666667,5.613333333333333,0.0
77.0,0.0,1106.6666666666667,5.626666666666667,0.0
77.0,0.0,1106.6666666666667,5.64,0.0
77.0,0.0,1106.6666666666667,5.653333333333333,0.0
77.0,0.0,1106.6666666666667,5.666666666666667,0.0
77.0,0.0,1106.6666666666667,5.68,0.0
77.0,0.0,1106.6666666666667,5.693333333333333,0.0
77.0,0.0,1106.6666666666667,5.706666666666667,0.0
78.0,0.0,1106.6666666666667,5.72,0.0
80.0,0.0,1106.6666666666667,5.733333333333333,0.0
85.0,0.0,1106.6666666666667,5.746666666666667,0.0
93.0,0.0,1106.6666666666667,5.76,0.0
103.0,0.0,1106.6666666666667,5.773333333333333,0.0
114.0,0.0,1106.6666666666667,5.786666666666667,0.0
125.0,0.0,1106.6666666666667,5.8,0.0
135.0,0.0,1106.6666666666667,5.8133333333333335,0.0
142.0,0.0,1106.6666666666667,5.826666666666667,0.0
146.0,0.0,1106.6666666666667,5.84,0.0
147.0,0.0,1106.6666666666667,5.8533333333333335,0.0
147.0,1.0,986.6666666666667,5.866666666666666,0.0
145.0,0.0,986.6666666666667,5.88,0.0
142.0,0.0,986.6666666666667,5.8933333333333335,0.0
140.0,0.0,986.6666666666667,5.906666666666666,0.0
138.0,0.0,986.6666666666667,5.92,0.0
136.0,0.0,986.6666666666667,5.933333333333334,0.0
134.0,0.0,986.6666666666667,5.946666666666666,0.0
132.0,0.0,986.6666666666667,5.96,0.0
130.0,0.0,986.6666666666667,5.973333333333334,0.0
128.0,0.0,986.6666666666667,5.986666666666666,0.0
125.0,0.0,986.6666666666667,6.0,0.0
122.0,0.0,986.6666666666667,6.013333333333334,0.0
119.0,0.0,986.6666666666667,6.026666666666666,0.0
116.0,0.0,986.6666666666667,6.04,0.0
114.0,0.0,986.6666666666667,6.053333333333334,0.0
111.0,0.0,986.6666666666667,6.066666666666666,0.0
110.0,0.0,986.6666666666667,6.08,0.0
108.0,0.0,986.6666666666667,6.093333333333334,0.0
107.0,0.0,986.6666666666667,6.1066666666666665,0.0
105.0,0.0,986.6666666666667,6.12,0.0
104.0,0.0,986.6666666666667,6.133333333333334,0.0
102.0,0.0,986.6666666666667,6.1466666666666665,0.0
101.0,0.0,986.6666666666667,6.16,0.0
99.0,0.0,986.6666666666667,6.173333333333333,0.0
98.0,0.0,986.6666666666667,6.1866666666666665,0.0
96.0,0.0,986.6666666666667,6.2,0.0
94.0,0.0,986.6666666666667,6.213333333333333,0.0
93.0,0.0,986.6666666666667,6.226666666666667,0.0
91.0,0.0,986.6666666666667,6.24,0.0
90.0,0.0,986.6666666666667,6.253333333333333,0.0
89.0,0.0,986.6666666666667,6.266666666666667,0.0
88.0,0.0,986.6666666666667,6.28,0.0
87.0,0.0,986.6666666666667,6.293333333333333,0.0
86.0,0.0,986.6666666666667,6.306666666666667,0.0
85.0,0.0,986.6666666666667,6.32,0.0
84.0,0.0,986.6666666666667,6.333333333333333,0.0
84.0,0.0,986.6666666666667,6.346666666666667,0.0
83.0,0.0,986.6666666666667,6.36,0.0
83.0,0.0,986.6666666666667,6.373333333333333,0.0
83.0,0.0,986.6666666666667,6.386666666666667,0.0
82.0,0.0,986.6666666666667,6.4,0.0
82.0,0.0,986.6666666666667,6.413333333333333,0.0
81.0,0.0,986.6666666666667,6.426666666666667,0.0
81.0,0.0,986.6666666666667,6.44,0.0
81.0,0.0,986.6666666666667,6.453333333333333,0.0
80.0,0.0,986.6666666666667,6.466666666666667,0.0
80.0,0.0,986.6666666666667,6.48,0.0
80.0,0.0,986.6666666666667,6.493333333333333,0.0
80.0,0.0,986.6666666666667,6.506666666666667,0.0
80.0,0.0,986.6666666666667,6.52,0.0
79.0,0.0,986.6666666666667,6.533333333333333,0.0
79.0,0.0,986.6666666666667,6.546666666666667,0.0
79.0,0.0,986.6666666666667,6.56,0.0
79.0,0.0,986.6666666666667,6.573333333333333,0.0
78.0,0.0,986.6666666666667,6.586666666666667,0.0
78.0,0.0,986.6666666666667,6.6,0.0
78.0,0.0,986.6666666666667,6.613333333333333,0.0
79.0,0.0,986.6666666666667,6.626666666666667,0.0
81.0,0.0,986.6666666666667,6.64,0.0
86.0,0.0,986.6666666666667,6.653333333333333,0.0
93.0,0.0,986.6666666666667,6.666666666666667,0.0
103.0,0.0,986.6666666666667,6.68,0.0
114.0,0.0,986.6666666666667,6.693333333333333,0.0
124.0,0.0,986.6666666666667,6.706666666666667,0.0
133.0,0.0,986.6666666666667,6.72,0.0
139.0,0.0,986.6666666666667,6.733333333333333,0.0
143.0,0.0,986.6666666666667,6.746666666666667,0.0
144.0,0.0,986.6666666666667,6.76,0.0
144.0,1.0,906.6666666666666,6.773333333333333,0.0
143.0,0.0,906.6666666666666,6.786666666666667,0.0
141.0,0.0,906.6666666666666,6.8,0.0
139.0,0.0,906.6666666666666,6.8133333333333335,0.0
138.0,0.0,906.6666666666666,6.826666666666667,0.0
136.0,0.0,906.6666666666666,6.84,0.0
135.0,0.0,906.6666666666666,6.8533333333333335,0.0
134.0,0.0,906.6666666666666,6.866666666666666,0.0
132.0,0.0,906.6666666666666,6.88,0.0
130.0,0.0,906.6666666666666,6.8933333333333335,0.0
127.0,0.0,906.6666666666666,6.906666666666666,0.0
124.0,0.0,906.6666666666666,6.92,0.0
121.0,0.0,906.6666666666666,6.933333333333334,0.0
118.0,0.0,906.6666666666666,6.946666666666666,0.0
115.0,0.0,906.6666666666666,6.96,0.0
113.0,0.0,906.6666666666666,6.973333333333334,0.0
111.0,0.0,906.6666666666666,6.986666666666666,0.0
110.0,0.0,906.6666666666666,7.0,0.0
108.0,0.0,906.6666666666666,7.013333333333334,0.0
107.0,0.0,906.6666666666666,7.026666666666666,0.0
105.0,0.0,906.6666666666666,7.04,0.0
104.0,0.0,906.6666666666666,7.053333333333334,0.0
102.0,0.0,906.6666666666666,7.066666666666666,0.0
100.0,0.0,906.6666666666666,7.08,0.0
99.0,0.0,906.6666666666666,7.093333333333334,0.0
97.0,0.0,906.6666666666666,7.1066666666666665,0.0
96.0,0.0,906.6666666666666,7.12,0.0
94.0,0.0,906.6666666666666,7.133333333333334,0.0
93.0,0.0,906.6666666666666,7.1466666666666665,0.0
92.0,0.0,906.6666666666666,7.16,0.0
91.0,0.0,906.6666666666666,7.173333333333333,0.0
90.0,0.0,906.6666666666666,7.1866666666666665,0.0
88.0,0.0,906.6666666666666,7.2,0.0
88.0,0.0,906.6666666666666,7.213333333333333,0.0
87.0,0.0,906.6666666666666,7.226666666666667,0.0
86.0,0.0,906.6666666666666,7.24,0.0
85.0,0.0,906.6666666666666,7.253333333333333,0.0
85.0,0.0,906.6666666666666,7.266666666666667,0.0
84.0,0.0,906.6666666666666,7.28,0.0
83.0,0.0,906.6666666666666,7.293333333333333,0.0
83.0,0.0,906.6666666666666,7.306666666666667,0.0
82.0,0.0,906.6666666666666,7.32,0.0
82.0,0.0,906.6666666666666,7.333333333333333,0.0
81.0,0.0,906.6666666666666,7.346666666666667,0.0
81.0,0.0,906.6666666666666,7.36,0.0
80.0,0.0,906.6666666666666,7.373333333333333,0.0
80.0,0.0,906.6666666666666,7.386666666666667,0.0
80.0,0.0,906.6666666666666,7.4,0.0
79.0,0.0,906.6666666666666,7.413333333333333,0.0
79.0,0.0,906.6666666666666,7.426666666666667,0.0
79.0,0.0,906.6666666666666,7.44,0.0
78.0,0.0,906.6666666666666,7.453333333333333,0.0
78.0,0.0,906.6666666666666,7.466666666666667,0.0
78.0,0.0,906.6666666666666,7.48,0.0
78.0,0.0,906.6666666666666,7.493333333333333,0.0
78.0,0.0,906.6666666666666,7.506666666666667,0.0
78.0,0.0,906.6666666666666,7.52,0.0
77.0,0.0,906.6666666666666,7.533333333333333,0.0
77.0,0.0,906.6666666666666,7.546666666666667,0.0
77.0,0.0,906.6666666666666,7.56,0.0
78.0,0.0,906.6666666666666,7.573333333333333,0.0
80.0,0.0,906.6666666666666,7.586666666666667,0.0
84.0,0.0,906.6666666666666,7.6,0.0
91.0,0.0,906.6666666666666,7.613333333333333,0.0
100.0,0.0,906.6666666666666,7.626666666666667,0.0
111.0,0.0,906.6666666666666,7.64,0.0
121.0,0.0,906.6666666666666,7.653333333333333,0.0
130.0,0.0,906.6666666666666,7.666666666666667,0.0
137.0,0.0,906.6666666666666,7.68,0.0
142.0,0.0,906.6666666666666,7.693333333333333,0.0
144.0,0.0,906.6666666666666,7.706666666666667,0.0
144.0,1.0,946.6666666666666,7.72,0.0
144.0,0.0,946.6666666666666,7.733333333333333,0.0
143.0,0.0,946.6666666666666,7.746666666666667,0.0
142.0,0.0,946.6666666666666,7.76,0.0
141.0,0.0,946.6666666666666,7.773333333333333,0.0
140.0,0.0,946.6666666666666,7.786666666666667,0.0
139.0,0.0,946.6666666666666,7.8,0.0
138.0,0.0,946.6666666666666,7.8133333333333335,0.0
137.0,0.0,946.6666666666666,7.826666666666667,0.0
135.0,0.0,946.6666666666666,7.84,0.0
132.0,0.0,946.6666666666666,7.8533333333333335,0.0
129.0,0.0,946.6666666666666,7.866666666666666,0.0
126.0,0.0,946.6666666666666,7.88,0.0
122.0,0.0,946.6666666666666,7.8933333333333335,0.0
119.0,0.0,946.6666666666666,7.906666666666666,0.0
117.0,0.0,946.6666666666666,7.92,0.0
114.0,0.0,946.6666666666666,7.933333333333334,0.0
112.0,0.0,946.6666666666666,7.946666666666666,0.0
111.0,0.0,946.6666666666666,7.96,0.0
109.0,0.0,946.6666666666666,7.973333333333334,0.0
107.0,0.0,946.6666666666666,7.986666666666666,0.0
106.0,0.0,946.6666666666666,8.0,0.0
104.0,0.0,946.6666666666666,8.013333333333334,0.0
102.0,0.0,946.6666666666666,8.026666666666667,0.0
101.0,0.0,946.6666666666666,8.04,0.0
99.0,0.0,946.6666666666666,8.053333333333333,0.0
97.0,0.0,946.6666666666666,8.066666666666666,0.0
95.0,0.0,946.6666666666666,8.08,0.0
94.0,0.0,946.6666666666666,8.093333333333334,0.0
92.0,0.0,946.6666666666666,8.106666666666667,0.0
91.0,0.0,946.6666666666666,8.12,0.0
90.0,0.0,946.6666666666666,8.133333333333333,0.0
89.0,0.0,946.6666666666666,8.146666666666667,0.0
87.0,0.0,946.6666666666666,8.16,0.0
86.0,0.0,946.6666666666666,8.173333333333334,0.0
85.0,0.0,946.6666666666666,8.186666666666667,0.0
84.0,0.0,946.6666666666666,8.2,0.0
84.0,0.0,946.6666666666666,8.213333333333333,0.0
83.0,0.0,946.6666666666666,8.226666666666667,0.0
82.0,0.0,946.6666666666666,8.24,0.0
82.0,0.0,946.6666666666666,8.253333333333334,0.0
81.0,0.0,946.6666666666666,8.266666666666667,0.0
81.0,0.0,946.6666666666666,8.28,0.0
80.0,0.0,946.6666666666666,8.293333333333333,0.0
79.0,0.0,946.6666666666666,8.306666666666667,0.0
79.0,0.0,946.6666666666666,8.32,0.0
78.0,0.0,946.6666666666666,8.333333333333334,0.0
77.0,0.0,946.6666666666666,8.346666666666666,0.0
77.0,0.0,946.6666666666666,8.36,0.0
76.0,0.0,946.6666666666666,8.373333333333333,0.0
76.0,0.0,946.6666666666666,8.386666666666667,0.0
75.0,0.0,946.6666666666666,8.4,0.0
75.0,0.0,946.6666666666666,8.413333333333334,0.0
75.0,0.0,946.6666666666666,8.426666666666666,0.0
74.0,0.0,946.6666666666666,8.44,0.0
74.0,0.0,946.6666666666666,8.453333333333333,0.0
74.0,0.0,946.6666666666666,8.466666666666667,0.0
74.0,0.0,946.6666666666666,8.48,0.0
73.0,0.0,946.6666666666666,8.493333333333334,0.0
73.0,0.0,946.6666666666666,8.506666666666666,0.0
73.0,0.0,946.6666666666666,8.52,0.0
73.0,0.0,946.6666666666666,8.533333333333333,0.0
74.0,0.0,946.6666666666666,8.546666666666667,0.0
74.0,0.0,946.6666666666666,8.56,0.0
74.0,0.0,946.6666666666666,8.573333333333334,0.0
74.0,0.0,946.6666666666666,8.586666666666666,0.0
74.0,0.0,946.6666666666666,8.6,0.0
74.0,0.0,946.6666666666666,8.613333333333333,0.0
74.0,0.0,946.6666666666666,8.626666666666667,0.0
74.0,0.0,946.6666666666666,8.64,0.0
74.0,0.0,946.6666666666666,8.653333333333334,0.0
75.0,0.0,946.6666666666666,8.666666666666666,0.0
78.0,0.0,946.6666666666666,8.68,0.0
84.0,0.0,946.6666666666666,8.693333333333333,0.0
93.0,0.0,946.6666666666666,8.706666666666667,0.0
103.0,0.0,946.6666666666666,8.72,0.0
115.0,0.0,946.6666666666666,8.733333333333333,0.0
126.0,0.0,946.6666666666666,8.746666666666666,0.0
135.0,0.0,946.6666666666666,8.76,0.0
142.0,0.0,946.6666666666666,8.773333333333333,0.0
145.0,0.0,946.6666666666666,8.786666666666667,0.0
147.0,0.0,946.6666666666666,8.8,0.0
146.0,1.0,1093.3333333333333,8.813333333333333,0.0
145.0,0.0,1093.3333333333333,8.826666666666666,0.0
144.0,0.0,1093.3333333333333,8.84,3.0
143.0,0.0,1093.3333333333333,8.853333333333333,0.0
141.0,0.0,1093.3333333333333,8.866666666666667,0.0
140.0,0.0,1093.3333333333333,8.88,0.0
139.0,0.0,1093.3333333333333,8.893333333333333,0.0
138.0,0.0,1093.3333333333333,8.906666666666666,0.0
137.0,0.0,1093.3333333333333,8.92,0.0
134.0,0.0,1093.3333333333333,8.933333333333334,0.0
131.0,0.0,1093.3333333333333,8.946666666666667,0.0
128.0,0.0,1093.3333333333333,8.96,0.0
124.0,0.0,1093.3333333333333,8.973333333333333,0.0
120.0,0.0,1093.3333333333333,8.986666666666666,0.0
117.0,0.0,1093.3333333333333,9.0,0.0
114.0,0.0,1093.3333333333333,9.013333333333334,0.0
112.0,0.0,1093.3333333333333,9.026666666666667,0.0
110.0,0.0,1093.3333333333333,9.04,0.0
108.0,0.0,1093.3333333333333,9.053333333333333,0.0
107.0,0.0,1093.3333333333333,9.066666666666666,0.0
105.0,0.0,1093.3333333333333,9.08,0.0
104.0,0.0,1093.3333333333333,9.093333333333334,0.0
102.0,0.0,1093.3333333333333,9.106666666666667,0.0
100.0,0.0,1093.3333333333333,9.12,0.0
98.0,0.0,1093.3333333333333,9.133333333333333,0.0
96.0,0.0,1093.3333333333333,9.146666666666667,0.0
95.0,0.0,1093.3333333333333,9.16,0.0
93.0,0.0,1093.3333333333333,9.173333333333334,0.0
92.0,0.0,1093.3333333333333,9.186666666666667,0.0
90.0,0.0,1093.3333333333333,9.2,0.0
89.0,0.0,1093.3333333333333,9.213333333333333,0.0
88.0,0.0,1093.3333333333333,9.226666666666667,0.0
86.0,0.0,1093.3333333333333,9.24,0.0
85.0,0.0,1093.3333333333333,9.253333333333334,0.0
84.0,0.0,1093.3333333333333,9.266666666666667,0.0
83.0,0.0,1093.3333333333333,9.28,0.0
82.0,0.0,1093.3333333333333,9.293333333333333,0.0
82.0,0.0,1093.3333333333333,9.306666666666667,0.0
81.0,0.0,1093.3333333333333,9.32,0.0
80.0,0.0,1093.3333333333333,9.333333333333334,0.0
80.0,0.0,1093.3333333333333,9.346666666666666,0.0
79.0,0.0,1093.3333333333333,9.36,0.0
79.0,0.0,1093.3333333333333,9.373333333333333,0.0
78.0,0.0,1093.3333333333333,9.386666666666667,0.0
78.0,0.0,1093.3333333333333,9.4,0.0
78.0,0.0,1093.3333333333333,9.413333333333334,0.0
77.0,0.0,1093.3333333333333,9.426666666666666,0.0
77.0,0.0,1093.3333333333333,9.44,0.0
76.0,0.0,1093.3333333333333,9.453333333333333,0.0
76.0,0.0,1093.3333333333333,9.466666666666667,0.0
75.0,0.0,1093.3333333333333,9.48,0.0
75.0,0.0,1093.3333333333333,9.493333333333334,0.0
75.0,0.0,1093.3333333333333,9.506666666666666,0.0
74.0,0.0,1093.3333333333333,9.52,0.0
74.0,0.0,1093.3333333333333,9.533333333333333,0.0
74.0,0.0,1093.3333333333333,9.546666666666667,0.0
74.0,0.0,1093.3333333333333,9.56,0.0
74.0,0.0,1093.3333333333333,9.573333333333334,0.0
74.0,0.0,1093.3333333333333,9.586666666666666,0.0
74.0,0.0,1093.3333333333333,9.6,0.0
75.0,0.0,1093.3333333333333,9.613333333333333,0.0
75.0,0.0,1093.3333333333333,9.626666666666667,0.0
75.0,0.0,1093.3333333333333,9.64,0.0
75.0,0.0,1093.3333333333333,9.653333333333334,0.0
75.0,0.0,1093.3333333333333,9.666666666666666,0.0
75.0,0.0,1093.3333333333333,9.68,0.0
75.0,0.0,1093.3333333333333,9.693333333333333,0.0
75.0,0.0,1093.3333333333333,9.706666666666667,0.0
75.0,0.0,1093.3333333333333,9.72,0.0
77.0,0.0,1093.3333333333333,9.733333333333333,0.0
81.0,0.0,1093.3333333333333,9.746666666666666,0.0
87.0,0.0,1093.3333333333333,9.76,0.0
96.0,0.0,1093.3333333333333,9.773333333333333,0.0
106.0,0.0,1093.3333333333333,9.786666666666667,0.0
117.0,0.0,1093.3333333333333,9.8,0.0
127.0,0.0,1093.3333333333333,9.813333333333333,0.0
135.0,0.0,1093.3333333333333,9.826666666666666,0.0
140.0,0.0,1093.3333333333333,9.84,0.0
142.0,0.0,1093.3333333333333,9.853333333333333,0.0
142.0,1.0,1053.3333333333333,9.866666666666667,0.0
142.0,0.0,1053.3333333333333,9.88,0.0
140.0,0.0,1053.3333333333333,9.893333333333333,0.0
139.0,0.0,1053.3333333333333,9.906666666666666,0.0
137.0,0.0,1053.3333333333333,9.92,0.0
136.0,0.0,1053.3333333333333,9.933333333333334,0.0
135.0,0.0,1053.3333333333333,9.946666666666667,0.0
134.0,0.0,1053.3333333333333,9.96,0.0
132.0,0.0,1053.3333333333333,9.973333333333333,0.0
130.0,0.0,1053.3333333333333,9.986666666666666,0.0
128.0,0.0,1053.3333333333333,10.0,0.0
125.0,0.0,1053.3333333333333,10.013333333333334,0.0
121.0,0.0,1053.3333333333333,10.026666666666667,0.0
118.0,0.0,1053.3333333333333,10.04,0.0
114.0,0.0,1053.3333333333333,10.053333333333333,0.0
112.0,0.0,1053.3333333333333,10.066666666666666,0.0
109.0,0.0,1053.3333333333333,10.08,0.0
107.0,0.0,1053.3333333333333,10.093333333333334,0.0
106.0,0.0,1053.3333333333333,10.106666666666667,0.0
104.0,0.0,1053.3333333333333,10.12,0.0
103.0,0.0,1053.3333333333333,10.133333333333333,0.0
101.0,0.0,1053.3333333333333,10.146666666666667,0.0
100.0,0.0,1053.3333333333333,10.16,0.0
98.0,0.0,1053.3333333333333,10.173333333333334,0.0
96.0,0.0,1053.3333333333333,10.186666666666667,0.0
95.0,0.0,1053.3333333333333,10.2,0.0
94.0,0.0,1053.3333333333333,10.213333333333333,0.0
92.0,0.0,1053.3333333333333,10.226666666666667,0.0
91.0,0.0,1053.3333333333333,10.24,0.0
90.0,0.0,1053.3333333333333,10.253333333333334,0.0
89.0,0.0,1053.3333333333333,10.266666666666667,0.0
87.0,0.0,1053.3333333333333,10.28,0.0
86.0,0.0,1053.3333333333333,10.293333333333333,0.0
85.0,0.0,1053.3333333333333,10.306666666666667,0.0
85.0,0.0,1053.3333333333333,10.32,0.0
84.0,0.0,1053.3333333333333,10.333333333333334,0.0
83.0,0.0,1053.3333333333333,10.346666666666666,0.0
82.0,0.0,1053.3333333333333,10.36,0.0
82.0,0.0,1053.3333333333333,10.373333333333333,0.0
81.0,0.0,1053.3333333333333,10.386666666666667,0.0
81.0,0.0,1053.3333333333333,10.4,0.0
81.0,0.0,1053.3333333333333,10.413333333333334,0.0
80.0,0.0,1053.3333333333333,10.426666666666666,0.0
80.0,0.0,1053.3333333333333,10.44,0.0
79.0,0.0,1053.3333333333333,10.453333333333333,0.0
79.0,0.0,1053.3333333333333,10.466666666666667,0.0
78.0,0.0,1053.3333333333333,10.48,0.0
78.0,0.0,1053.3333333333333,10.493333333333334,0.0
78.0,0.0,1053.3333333333333,10.506666666666666,0.0
77.0,0.0,1053.3333333333333,10.52,0.0
77.0,0.0,1053.3333333333333,10.533333333333333,0.0
77.0,0.0,1053.3333333333333,10.546666666666667,0.0
76.0,0.0,1053.3333333333333,10.56,0.0
76.0,0.0,1053.3333333333333,10.573333333333334,0.0
76.0,0.0,1053.3333333333333,10.586666666666666,0.0
76.0,0.0,1053.3333333333333,10.6,0.0
76.0,0.0,1053.3333333333333,10.613333333333333,0.0
76.0,0.0,1053.3333333333333,10.626666666666667,0.0
76.0,0.0,1053.3333333333333,10.64,0.0
76.0,0.0,1053.3333333333333,10.653333333333334,0.0
76.0,0.0,1053.3333333333333,10.666666666666666,0.0
76.0,0.0,1053.3333333333333,10.68,0.0
77.0,0.0,1053.3333333333333,10.693333333333333,0.0
77.0,0.0,1053.3333333333333,10.706666666666667,0.0
77.0,0.0,1053.3333333333333,10.72,0.0
76.0,0.0,1053.3333333333333,10.733333333333333,0.0
76.0,0.0,1053.3333333333333,10.746666666666666,0.0
76.0,0.0,1053.3333333333333,10.76,0.0
77.0,0.0,1053.3333333333333,10.773333333333333,0.0
79.0,0.0,1053.3333333333333,10.786666666666667,0.0
84.0,0.0,1053.3333333333333,10.8,0.0
91.0,0.0,1053.3333333333333,10.813333333333333,0.0
101.0,0.0,1053.3333333333333,10.826666666666666,0.0
112.0,0.0,1053.3333333333333,10.84,0.0
123.0,0.0,1053.3333333333333,10.853333333333333,0.0
132.0,0.0,1053.3333333333333,10.866666666666667,0.0
138.0,0.0,1053.3333333333333,10.88,0.0
142.0,0.0,1053.3333333333333,10.893333333333333,0.0
143.0,0.0,1053.3333333333333,10.906666666666666,0.0
143.0,1.0,1053.3333333333333,10.92,0.0
141.0,0.0,1053.3333333333333,10.933333333333334,0.0
140.0,0.0,1053.3333333333333,10.946666666666667,0.0
138.0,0.0,1053.3333333333333,10.96,0.0
136.0,0.0,1053.3333333333333,10.973333333333333,0.0
135.0,0.0,1053.3333333333333,10.986666666666666,0.0
134.0,0.0,1053.3333333333333,11.0,0.0
132.0,0.0,1053.3333333333333,11.013333333333334,0.0
131.0,0.0,1053.3333333333333,11.026666666666667,0.0
128.0,0.0,1053.3333333333333,11.04,0.0
126.0,0.0,1053.3333333333333,11.053333333333333,0.0
122.0,0.0,1053.3333333333333,11.066666666666666,0.0
119.0,0.0,1053.3333333333333,11.08,0.0
116.0,0.0,1053.3333333333333,11.093333333333334,0.0
113.0,0.0,1053.3333333333333,11.106666666666667,0.0
110.0,0.0,1053.3333333333333,11.12,0.0
108.0,0.0,1053.3333333333333,11.133333333333333,0.0
106.0,0.0,1053.3333333333333,11.146666666666667,0.0
105.0,0.0,1053.3333333333333,11.16,0.0
103.0,0.0,1053.3333333333333,11.173333333333334,0.0
102.0,0.0,1053.3333333333333,11.186666666666667,0.0
100.0,0.0,1053.3333333333333,11.2,0.0
99.0,0.0,1053.3333333333333,11.213333333333333,0.0
97.0,0.0,1053.3333333333333,11.226666666666667,0.0
96.0,0.0,1053.3333333333333,11.24,0.0
94.0,0.0,1053.3333333333333,11.253333333333334,0.0
93.0,0.0,1053.3333333333333,11.266666666666667,0.0
92.0,0.0,1053.3333333333333,11.28,0.0
90.0,0.0,1053.3333333333333,11.293333333333333,0.0
89.0,0.0,1053.3333333333333,11.306666666666667,0.0
88.0,0.0,1053.3333333333333,11.32,0.0
87.0,0.0,1053.3333333333333,11.333333333333334,0.0
86.0,0.0,1053.3333333333333,11.346666666666666,0.0
85.0,0.0,1053.3333333333333,11.36,0.0
84.0,0.0,1053.3333333333333,11.373333333333333,0.0
83.0,0.0,1053.3333333333333,11.386666666666667,0.0
83.0,0.0,1053.3333333333333,11.4,0.0
82.0,0.0,1053.3333333333333,11.413333333333334,0.0
82.0,0.0,1053.3333333333333,11.426666666666666,0.0
81.0,0.0,1053.3333333333333,11.44,0.0
81.0,0.0,1053.3333333333333,11.453333333333333,0.0
80.0,0.0,1053.3333333333333,11.466666666666667,0.0
80.0,0.0,1053.3333333333333,11.48,0.0
80.0,0.0,1053.3333333333333,11.493333333333334,0.0
79.0,0.0,1053.3333333333333,11.506666666666666,0.0
79.0,0.0,1053.3333333333333,11.52,0.0
78.0,0.0,1053.3333333333333,11.533333333333333,0.0
78.0,0.0,1053.3333333333333,11.546666666666667,0.0
78.0,0.0,1053.3333333333333,11.56,0.0
77.0,0.0,1053.3333333333333,11.573333333333334,0.0
77.0,0.0,1053.3333333333333,11.586666666666666,0.0
77.0,0.0,1053.3333333333333,11.6,0.0
77.0,0.0,1053.3333333333333,11.613333333333333,0.0
76.0,0.0,1053.3333333333333,11.626666666666667,0.0
76.0,0.0,1053.3333333333333,11.64,0.0
76.0,0.0,1053.3333333333333,11.653333333333334,0.0
76.0,0.0,1053.3333333333333,11.666666666666666,0.0
76.0,0.0,1053.3333333333333,11.68,0.0
76.0,0.0,1053.3333333333333,11.693333333333333,0.0
76.0,0.0,1053.3333333333333,11.706666666666667,0.0
76.0,0.0,1053.3333333333333,11.72,0.0
76.0,0.0,1053.3333333333333,11.733333333333333,0.0
76.0,0.0,1053.3333333333333,11.746666666666666,0.0
76.0,0.0,1053.3333333333333,11.76,0.0
76.0,0.0,1053.3333333333333,11.773333333333333,0.0
78.0,0.0,1053.3333333333333,11.786666666666667,0.0
81.0,0.0,1053.3333333333333,11.8,0.0
87.0,0.0,1053.3333333333333,11.813333333333333,0.0
96.0,0.0,1053.3333333333333,11.826666666666666,0.0
106.0,0.0,1053.3333333333333,11.84,0.0
117.0,0.0,1053.3333333333333,11.853333333333333,0.0
127.0,0.0,1053.3333333333333,11.866666666666667,0.0
135.0,0.0,1053.3333333333333,11.88,0.0
140.0,0.0,1053.3333333333333,11.893333333333333,0.0
142.0,0.0,1053.3333333333333,11.906666666666666,0.0
142.0,1.0,1000.0,11.92,0.0
141.0,0.0,1000.0,11.933333333333334,0.0
140.0,0.0,1000.0,11.946666666666667,0.0
138.0,0.0,1000.0,11.96,0.0
136.0,0.0,1000.0,11.973333333333333,0.0
134.0,0.0,1000.0,11.986666666666666,0.0
133.0,0.0,1000.0,12.0,0.0
131.0,0.0,1000.0,12.013333333333334,0.0
130.0,0.0,1000.0,12.026666666666667,0.0
128.0,0.0,1000.0,12.04,0.0
125.0,0.0,1000.0,12.053333333333333,0.0
122.0,0.0,1000.0,12.066666666666666,0.0
119.0,0.0,1000.0,12.08,0.0
115.0,0.0,1000.0,12.093333333333334,0.0
112.0,0.0,1000.0,12.106666666666667,0.0
110.0,0.0,1000.0,12.12,0.0
108.0,0.0,1000.0,12.133333333333333,0.0
106.0,0.0,1000.0,12.146666666666667,0.0
104.0,0.0,1000.0,12.16,0.0
103.0,0.0,1000.0,12.173333333333334,0.0
102.0,0.0,1000.0,12.186666666666667,0.0
101.0,0.0,1000.0,12.2,0.0
99.0,0.0,1000.0,12.213333333333333,0.0
98.0,0.0,1000.0,12.226666666666667,0.0
97.0,0.0,1000.0,12.24,0.0
95.0,0.0,1000.0,12.253333333333334,0.0
94.0,0.0,1000.0,12.266666666666667,0.0
93.0,0.0,1000.0,12.28,0.0
91.0,0.0,1000.0,12.293333333333333,0.0
90.0,0.0,1000.0,12.306666666666667,0.0
89.0,0.0,1000.0,12.32,0.0
88.0,0.0,1000.0,12.333333333333334,0.0
87.0,0.0,1000.0,12.346666666666666,0.0
86.0,0.0,1000.0,12.36,0.0
85.0,0.0,1000.0,12.373333333333333,0.0
85.0,0.0,1000.0,12.386666666666667,0.0
84.0,0.0,1000.0,12.4,0.0
83.0,0.0,1000.0,12.413333333333334,0.0
83.0,0.0,1000.0,12.426666666666666,0.0
82.0,0.0,1000.0,12.44,0.0
82.0,0.0,1000.0,12.453333333333333,0.0
82.0,0.0,1000.0,12.466666666666667,0.0
81.0,0.0,1000.0,12.48,0.0
81.0,0.0,1000.0,12.493333333333334,0.0
81.0,0.0,1000.0,12.506666666666666,0.0
81.0,0.0,1000.0,12.52,0.0
80.0,0.0,1000.0,12.533333333333333,0.0
80.0,0.0,1000.0,12.546666666666667,0.0
80.0,0.0,1000.0,12.56,0.0
80.0,0.0,1000.0,12.573333333333334,0.0
80.0,0.0,1000.0,12.586666666666666,0.0
80.0,0.0,1000.0,12.6,0.0
80.0,0.0,1000.0,12.613333333333333,0.0
80.0,0.0,1000.0,12.626666666666667,0.0
79.0,0.0,1000.0,12.64,0.0
79.0,0.0,1000.0,12.653333333333334,0.0
78.0,0.0,1000.0,12.666666666666666,0.0
78.0,0.0,1000.0,12.68,0.0
78.0,0.0,1000.0,12.693333333333333,0.0
79.0,0.0,1000.0,12.706666666666667,0.0
83.0,0.0,1000.0,12.72,0.0
88.0,0.0,1000.0,12.733333333333333,0.0
97.0,0.0,1000.0,12.746666666666666,0.0
107.0,0.0,1000.0,12.76,0.0
117.0,0.0,1000.0,12.773333333333333,0.0
126.0,0.0,1000.0,12.786666666666667,0.0
134.0,0.0,1000.0,12.8,0.0
138.0,0.0,1000.0,12.813333333333333,0.0
140.0,0.0,1000.0,12.826666666666666,4.0
140.0,1.0,920.0,12.84,0.0
139.0,0.0,920.0,12.853333333333333,0.0
137.0,0.0,920.0,12.866666666666667,0.0
136.0,0.0,920.0,12.88,0.0
134.0,0.0,920.0,12.893333333333333,0.0
132.0,0.0,920.0,12.906666666666666,0.0
131.0,0.0,920.0,12.92,0.0
129.0,0.0,920.0,12.933333333333334,0.0
127.0,0.0,920.0,12.946666666666667,0.0
125.0,0.0,920.0,12.96,0.0
123.0,0.0,920.0,12.973333333333333,0.0
120.0,0.0,920.0,12.986666666666666,0.0
117.0,0.0,920.0,13.0,0.0
114.0,0.0,920.0,13.013333333333334,0.0
111.0,0.0,920.0,13.026666666666667,0.0
108.0,0.0,920.0,13.04,0.0
107.0,0.0,920.0,13.053333333333333,0.0
105.0,0.0,920.0,13.066666666666666,0.0
104.0,0.0,920.0,13.08,0.0
102.0,0.0,920.0,13.093333333333334,0.0
101.0,0.0,920.0,13.106666666666667,0.0
100.0,0.0,920.0,13.12,0.0
99.0,0.0,920.0,13.133333333333333,0.0
97.0,0.0,920.0,13.146666666666667,0.0
96.0,0.0,920.0,13.16,0.0
94.0,0.0,920.0,13.173333333333334,0.0
93.0,0.0,920.0,13.186666666666667,0.0
92.0,0.0,920.0,13.2,0.0
91.0,0.0,920.0,13.213333333333333,0.0
90.0,0.0,920.0,13.226666666666667,0.0
88.0,0.0,920.0,13.24,0.0
87.0,0.0,920.0,13.253333333333334,0.0
87.0,0.0,920.0,13.266666666666667,0.0
86.0,0.0,920.0,13.28,0.0
85.0,0.0,920.0,13.293333333333333,0.0
84.0,0.0,920.0,13.306666666666667,0.0
84.0,0.0,920.0,13.32,0.0
83.0,0.0,920.0,13.333333333333334,0.0
83.0,0.0,920.0,13.346666666666666,0.0
83.0,0.0,920.0,13.36,0.0
82.0,0.0,920.0,13.373333333333333,0.0
82.0,0.0,920.0,13.386666666666667,0.0
82.0,0.0,920.0,13.4,0.0
81.0,0.0,920.0,13.413333333333334,0.0
81.0,0.0,920.0,13.426666666666666,0.0
81.0,0.0,920.0,13.44,0.0
81.0,0.0,920.0,13.453333333333333,0.0
80.0,0.0,920.0,13.466666666666667,0.0
80.0,0.0,920.0,13.48,0.0
80.0,0.0,920.0,13.493333333333334,0.0
80.0,0.0,920.0,13.506666666666666,0.0
80.0,0.0,920.0,13.52,0.0
79.0,0.0,920.0,13.533333333333333,0.0
79.0,0.0,920.0,13.546666666666667,0.0
79.0,0.0,920.0,13.56,0.0
78.0,0.0,920.0,13.573333333333334,0.0
79.0,0.0,920.0,13.586666666666666,0.0
81.0,0.0,920.0,13.6,0.0
85.0,0.0,920.0,13.613333333333333,0.0
92.0,0.0,920.0,13.626666666666667,0.0
101.0,0.0,920.0,13.64,0.0
112.0,0.0,920.0,13.653333333333334,0.0
122.0,0.0,920.0,13.666666666666666,0.0
130.0,0.0,920.0,13.68,0.0
136.0,0.0,920.0,13.693333333333333,0.0
140.0,0.0,920.0,13.706666666666667,0.0
141.0,0.0,920.0,13.72,0.0
141.0,1.0,893.3333333333333,13.733333333333333,0.0
139.0,0.0,893.3333333333333,13.746666666666666,0.0
137.0,0.0,893.3333333333333,13.76,0.0
135.0,0.0,893.3333333333333,13.773333333333333,0.0
134.0,0.0,893.3333333333333,13.786666666666667,0.0
132.0,0.0,893.3333333333333,13.8,0.0
131.0,0.0,893.3333333333333,13.813333333333333,0.0
129.0,0.0,893.3333333333333,13.826666666666666,0.0
128.0,0.0,893.3333333333333,13.84,0.0
125.0,0.0,893.3333333333333,13.853333333333333,0.0
123.0,0.0,893.3333333333333,13.866666666666667,0.0
119.0,0.0,893.3333333333333,13.88,0.0
116.0,0.0,893.3333333333333,13.893333333333333,0.0
113.0,0.0,893.3333333333333,13.906666666666666,0.0
110.0,0.0,893.3333333333333,13.92,0.0
108.0,0.0,893.3333333333333,13.933333333333334,0.0
106.0,0.0,893.3333333333333,13.946666666666667,0.0
104.0,0.0,893.3333333333333,13.96,0.0
103.0,0.0,893.3333333333333,13.973333333333333,0.0
101.0,0.0,893.3333333333333,13.986666666666666,0.0
100.0,0.0,893.3333333333333,14.0,0.0
99.0,0.0,893.3333333333333,14.013333333333334,0.0
98.0,0.0,893.3333333333333,14.026666666666667,0.0
96.0,0.0,893.3333333333333,14.04,0.0
95.0,0.0,893.3333333333333,14.053333333333333,0.0
93.0,0.0,893.3333333333333,14.066666666666666,0.0
92.0,0.0,893.3333333333333,14.08,0.0
91.0,0.0,893.3333333333333,14.093333333333334,0.0
90.0,0.0,893.3333333333333,14.106666666666667,0.0
88.0,0.0,893.3333333333333,14.12,0.0
87.0,0.0,893.3333333333333,14.133333333333333,0.0
86.0,0.0,893.3333333333333,14.146666666666667,0.0
86.0,0.0,893.3333333333333,14.16,0.0
85.0,0.0,893.3333333333333,14.173333333333334,0.0
84.0,0.0,893.3333333333333,14.186666666666667,0.0
83.0,0.0,893.3333333333333,14.2,0.0
83.0,0.0,893.3333333333333,14.213333333333333,0.0
83.0,0.0,893.3333333333333,14.226666666666667,0.0
82.0,0.0,893.3333333333333,14.24,0.0
82.0,0.0,893.3333333333333,14.253333333333334,0.0
82.0,0.0,893.3333333333333,14.266666666666667,0.0
81.0,0.0,893.3333333333333,14.28,0.0
81.0,0.0,893.3333333333333,14.293333333333333,0.0
81.0,0.0,893.3333333333333,14.306666666666667,0.0
81.0,0.0,893.3333333333333,14.32,0.0
80.0,0.0,893.3333333333333,14.333333333333334,0.0
80.0,0.0,893.3333333333333,14.346666666666666,0.0
80.0,0.0,893.3333333333333,14.36,0.0
79.0,0.0,893.3333333333333,14.373333333333333,0.0
79.0,0.0,893.3333333333333,14.386666666666667,0.0
79.0,0.0,893.3333333333333,14.4,0.0
79.0,0.0,893.3333333333333,14.413333333333334,0.0
79.0,0.0,893.3333333333333,14.426666666666666,0.0
79.0,0.0,893.3333333333333,14.44,0.0
79.0,0.0,893.3333333333333,14.453333333333333,0.0
79.0,0.0,893.3333333333333,14.466666666666667,0.0
79.0,0.0,893.3333333333333,14.48,0.0
78.0,0.0,893.3333333333333,14.493333333333334,0.0
78.0,0.0,893.3333333333333,14.506666666666666,0.0
78.0,0.0,893.3333333333333,14.52,0.0
79.0,0.0,893.3333333333333,14.533333333333333,0.0
81.0,0.0,893.3333333333333,14.546666666666667,0.0
85.0,0.0,893.3333333333333,14.56,0.0
92.0,0.0,893.3333333333333,14.573333333333334,0.0
101.0,0.0,893.3333333333333,14.586666666666666,0.0
112.0,0.0,893.3333333333333,14.6,0.0
123.0,0.0,893.3333333333333,14.613333333333333,0.0
132.0,0.0,893.3333333333333,14.626666666666667,0.0
139.0,0.0,893.3333333333333,14.64,0.0
142.0,0.0,893.3333333333333,14.653333333333334,0.0
144.0,0.0,893.3333333333333,14.666666666666666,0.0
143.0,1.0,946.6666666666666,14.68,0.0
142.0,0.0,946.6666666666666,14.693333333333333,0.0
140.0,0.0,946.6666666666666,14.706666666666667,0.0
138.0,0.0,946.6666666666666,14.72,0.0
137.0,0.0,946.6666666666666,14.733333333333333,0.0
135.0,0.0,946.6666666666666,14.746666666666666,0.0
134.0,0.0,946.6666666666666,14.76,0.0
132.0,0.0,946.6666666666666,14.773333333333333,0.0
130.0,0.0,946.6666666666666,14.786666666666667,0.0
128.0,0.0,946.6666666666666,14.8,0.0
125.0,0.0,946.6666666666666,14.813333333333333,0.0
122.0,0.0,946.6666666666666,14.826666666666666,0.0
119.0,0.0,946.6666666666666,14.84,0.0
115.0,0.0,946.6666666666666,14.853333333333333,0.0
112.0,0.0,946.6666666666666,14.866666666666667,0.0
110.0,0.0,946.6666666666666,14.88,0.0
108.0,0.0,946.6666666666666,14.893333333333333,0.0
106.0,0.0,946.6666666666666,14.906666666666666,0.0
105.0,0.0,946.6666666666666,14.92,0.0
103.0,0.0,946.6666666666666,14.933333333333334,0.0
102.0,0.0,946.6666666666666,14.946666666666667,0.0
100.0,0.0,946.6666666666666,14.96,0.0
99.0,0.0,946.6666666666666,14.973333333333333,0.0
98.0,0.0,946.6666666666666,14.986666666666666,0.0
96.0,0.0,946.6666666666666,15.0,0.0
95.0,0.0,946.6666666666666,15.013333333333334,0.0
93.0,0.0,946.6666666666666,15.026666666666667,0.0
92.0,0.0,946.6666666666666,15.04,0.0
91.0,0.0,946.6666666666666,15.053333333333333,0.0
90.0,0.0,946.6666666666666,15.066666666666666,0.0
88.0,0.0,946.6666666666666,15.08,0.0
87.0,0.0,946.6666666666666,15.093333333333334,0.0
86.0,0.0,946.6666666666666,15.106666666666667,0.0
86.0,0.0,946.6666666666666,15.12,0.0
85.0,0.0,946.6666666666666,15.133333333333333,0.0
84.0,0.0,946.6666666666666,15.146666666666667,0.0
84.0,0.0,946.6666666666666,15.16,0.0
83.0,0.0,946.6666666666666,15.173333333333334,0.0
83.0,0.0,946.6666666666666,15.186666666666667,0.0
82.0,0.0,946.6666666666666,15.2,0.0
82.0,0.0,946.6666666666666,15.213333333333333,0.0
82.0,0.0,946.6666666666666,15.226666666666667,0.0
81.0,0.0,946.6666666666666,15.24,0.0
81.0,0.0,946.6666666666666,15.253333333333334,0.0
81.0,0.0,946.6666666666666,15.266666666666667,0.0
80.0,0.0,946.6666666666666,15.28,0.0
80.0,0.0,946.6666666666666,15.293333333333333,0.0
79.0,0.0,946.6666666666666,15.306666666666667,0.0
79.0,0.0,946.6666666666666,15.32,0.0
79.0,0.0,946.6666666666666,15.333333333333334,0.0
78.0,0.0,946.6666666666666,15.346666666666666,0.0
78.0,0.0,946.6666666666666,15.36,0.0
77.0,0.0,946.6666666666666,15.373333333333333,0.0
77.0,0.0,946.6666666666666,15.386666666666667,0.0
77.0,0.0,946.6666666666666,15.4,0.0
77.0,0.0,946.6666666666666,15.413333333333334,0.0
77.0,0.0,946.6666666666666,15.426666666666666,0.0
77.0,0.0,946.6666666666666,15.44,0.0
77.0,0.0,946.6666666666666,15.453333333333333,0.0
77.0,0.0,946.6666666666666,15.466666666666667,0.0
77.0,0.0,946.6666666666666,15.48,0.0
77.0,0.0,946.6666666666666,15.493333333333334,0.0
77.0,0.0,946.6666666666666,15.506666666666666,0.0
78.0,0.0,946.6666666666666,15.52,0.0
77.0,0.0,946.6666666666666,15.533333333333333,0.0
78.0,0.0,946.6666666666666,15.546666666666667,0.0
78.0,0.0,946.6666666666666,15.56,0.0
79.0,0.0,946.6666666666666,15.573333333333334,0.0
83.0,0.0,946.6666666666666,15.586666666666666,0.0
90.0,0.0,946.6666666666666,15.6,0.0
99.0,0.0,946.6666666666666,15.613333333333333,0.0
111.0,0.0,946.6666666666666,15.626666666666667,0.0
122.0,0.0,946.6666666666666,15.64,0.0
133.0,0.0,946.6666666666666,15.653333333333334,0.0
140.0,0.0,946.6666666666666,15.666666666666666,0.0
145.0,0.0,946.6666666666666,15.68,0.0
147.0,0.0,946.6666666666666,15.693333333333333,0.0
146.0,1.0,1026.6666666666665,15.706666666666667,0.0
145.0,0.0,1026.6666666666665,15.72,0.0
143.0,0.0,1026.6666666666665,15.733333333333333,0.0
141.0,0.0,1026.6666666666665,15.746666666666666,0.0
139.0,0.0,1026.6666666666665,15.76,0.0
137.0,0.0,1026.6666666666665,15.773333333333333,0.0
136.0,0.0,1026.6666666666665,15.786666666666667,0.0
134.0,0.0,1026.6666666666665,15.8,0.0
132.0,0.0,1026.6666666666665,15.813333333333333,0.0
130.0,0.0,1026.6666666666665,15.826666666666666,0.0
127.0,0.0,1026.6666666666665,15.84,0.0
123.0,0.0,1026.6666666666665,15.853333333333333,0.0
120.0,0.0,1026.6666666666665,15.866666666666667,0.0
117.0,0.0,1026.6666666666665,15.88,0.0
114.0,0.0,1026.6666666666665,15.893333333333333,0.0
111.0,0.0,1026.6666666666665,15.906666666666666,0.0
109.0,0.0,1026.6666666666665,15.92,0.0
107.0,0.0,1026.6666666666665,15.933333333333334,0.0
106.0,0.0,1026.6666666666665,15.946666666666667,0.0
105.0,0.0,1026.6666666666665,15.96,0.0
103.0,0.0,1026.6666666666665,15.973333333333333,0.0
102.0,0.0,1026.6666666666665,15.986666666666666,0.0
101.0,0.0,1026.6666666666665,16.0,0.0
100.0,0.0,1026.6666666666665,16.013333333333332,0.0
98.0,0.0,1026.6666666666665,16.026666666666667,0.0
97.0,0.0,1026.6666666666665,16.04,0.0
96.0,0.0,1026.6666666666665,16.053333333333335,0.0
95.0,0.0,1026.6666666666665,16.066666666666666,0.0
94.0,0.0,1026.6666666666665,16.08,0.0
93.0,0.0,1026.6666666666665,16.093333333333334,0.0
92.0,0.0,1026.6666666666665,16.106666666666666,0.0
91.0,0.0,1026.6666666666665,16.12,0.0
90.0,0.0,1026.6666666666665,16.133333333333333,0.0
90.0,0.0,1026.6666666666665,16.14666666666667,0.0
89.0,0.0,1026.6666666666665,16.16,0.0
89.0,0.0,1026.6666666666665,16.173333333333332,0.0
89.0,0.0,1026.6666666666665,16.186666666666667,0.0
88.0,0.0,1026.6666666666665,16.2,0.0
88.0,0.0,1026.6666666666665,16.213333333333335,0.0
87.0,0.0,1026.6666666666665,16.226666666666667,0.0
87.0,0.0,1026.6666666666665,16.24,0.0
86.0,0.0,1026.6666666666665,16.253333333333334,0.0
86.0,0.0,1026.6666666666665,16.266666666666666,0.0
85.0,0.0,1026.6666666666665,16.28,0.0
85.0,0.0,1026.6666666666665,16.293333333333333,0.0
84.0,0.0,1026.6666666666665,16.30666666666667,0.0
84.0,0.0,1026.6666666666665,16.32,0.0
83.0,0.0,1026.6666666666665,16.333333333333332,0.0
83.0,0.0,1026.6666666666665,16.346666666666668,0.0
83.0,0.0,1026.6666666666665,16.36,0.0
82.0,0.0,1026.6666666666665,16.373333333333335,0.0
82.0,0.0,1026.6666666666665,16.386666666666667,0.0
82.0,0.0,1026.6666666666665,16.4,0.0
82.0,0.0,1026.6666666666665,16.413333333333334,0.0
82.0,0.0,1026.6666666666665,16.426666666666666,0.0
82.0,0.0,1026.6666666666665,16.44,0.0
82.0,0.0,1026.6666666666665,16.453333333333333,0.0
82.0,0.0,1026.6666666666665,16.466666666666665,0.0
82.0,0.0,1026.6666666666665,16.48,0.0
82.0,0.0,1026.6666666666665,16.493333333333332,0.0
82.0,0.0,1026.6666666666665,16.506666666666668,0.0
82.0,0.0,1026.6666666666665,16.52,0.0
83.0,0.0,1026.6666666666665,16.533333333333335,0.0
85.0,0.0,1026.6666666666665,16.546666666666667,0.0
89.0,0.0,1026.6666666666665,16.56,0.0
96.0,0.0,1026.6666666666665,16.573333333333334,0.0
104.0,0.0,1026.6666666666665,16.586666666666666,0.0
113.0,0.0,1026.6666666666665,16.6,0.0
122.0,0.0,1026.6666666666665,16.613333333333333,0.0
130.0,0.0,1026.6666666666665,16.626666666666665,0.0
135.0,0.0,1026.6666666666665,16.64,0.0
137.0,0.0,1026.6666666666665,16.653333333333332,0.0
138.0,0.0,1026.6666666666665,16.666666666666668,0.0
137.0,1.0,973.3333333333334,16.68,0.0
136.0,0.0,973.3333333333334,16.69333333333333,0.0
134.0,0.0,973.3333333333334,16.706666666666667,0.0
132.0,0.0,973.3333333333334,16.72,0.0
131.0,0.0,973.3333333333334,16.733333333333334,0.0
129.0,0.0,973.3333333333334,16.746666666666666,0.0
128.0,0.0,973.3333333333334,16.76,0.0
127.0,0.0,973.3333333333334,16.773333333333333,0.0
125.0,0.0,973.3333333333334,16.786666666666665,0.0
123.0,0.0,973.3333333333334,16.8,0.0
120.0,0.0,973.3333333333334,16.813333333333333,0.0
117.0,0.0,973.3333333333334,16.826666666666668,0.0
114.0,0.0,973.3333333333334,16.84,0.0
111.0,0.0,973.3333333333334,16.85333333333333,0.0
108.0,0.0,973.3333333333334,16.866666666666667,0.0
106.0,0.0,973.3333333333334,16.88,0.0
105.0,0.0,973.3333333333334,16.893333333333334,0.0
103.0,0.0,973.3333333333334,16.906666666666666,0.0
102.0,0.0,973.3333333333334,16.92,0.0
101.0,0.0,973.3333333333334,16.933333333333334,0.0
100.0,0.0,973.3333333333334,16.946666666666665,0.0
99.0,0.0,973.3333333333334,16.96,0.0
98.0,0.0,973.3333333333334,16.973333333333333,0.0
97.0,0.0,973.3333333333334,16.986666666666668,0.0
95.0,0.0,973.3333333333334,17.0,0.0
94.0,0.0,973.3333333333334,17.013333333333332,0.0
93.0,0.0,973.3333333333334,17.026666666666667,0.0
91.0,0.0,973.3333333333334,17.04,0.0
90.0,0.0,973.3333333333334,17.053333333333335,0.0
89.0,0.0,973.3333333333334,17.066666666666666,0.0
88.0,0.0,973.3333333333334,17.08,0.0
87.0,0.0,973.3333333333334,17.093333333333334,0.0
86.0,0.0,973.3333333333334,17.106666666666666,0.0
85.0,0.0,973.3333333333334,17.12,0.0
85.0,0.0,973.3333333333334,17.133333333333333,0.0
84.0,0.0,973.3333333333334,17.14666666666667,0.0
83.0,0.0,973.3333333333334,17.16,0.0
82.0,0.0,973.3333333333334,17.173333333333332,0.0
81.0,0.0,973.3333333333334,17.186666666666667,0.0
80.0,0.0,973.3333333333334,17.2,0.0
80.0,0.0,973.3333333333334,17.213333333333335,0.0
79.0,0.0,973.3333333333334,17.226666666666667,0.0
78.0,0.0,973.3333333333334,17.24,0.0
78.0,0.0,973.3333333333334,17.253333333333334,0.0
77.0,0.0,973.3333333333334,17.266666666666666,0.0
77.0,0.0,973.3333333333334,17.28,0.0
77.0,0.0,973.3333333333334,17.293333333333333,0.0
77.0,0.0,973.3333333333334,17.30666666666667,0.0
77.0,0.0,973.3333333333334,17.32,0.0
77.0,0.0,973.3333333333334,17.333333333333332,0.0
77.0,0.0,973.3333333333334,17.346666666666668,0.0
76.0,0.0,973.3333333333334,17.36,0.0
76.0,0.0,973.3333333333334,17.373333333333335,0.0
76.0,0.0,973.3333333333334,17.386666666666667,0.0
76.0,0.0,973.3333333333334,17.4,0.0
75.0,0.0,973.3333333333334,17.413333333333334,0.0
75.0,0.0,973.3333333333334,17.426666666666666,0.0
74.0,0.0,973.3333333333334,17.44,0.0
74.0,0.0,973.3333333333334,17.453333333333333,0.0
74.0,0.0,973.3333333333334,17.466666666666665,0.0
75.0,0.0,973.3333333333334,17.48,0.0
77.0,0.0,973.3333333333334,17.493333333333332,0.0
82.0,0.0,973.3333333333334,17.506666666666668,0.0
90.0,0.0,973.3333333333334,17.52,0.0
100.0,0.0,973.3333333333334,17.533333333333335,0.0
111.0,0.0,973.3333333333334,17.546666666666667,0.0
121.0,0.0,973.3333333333334,17.56,0.0
129.0,0.0,973.3333333333334,17.573333333333334,0.0
134.0,0.0,973.3333333333334,17.586666666666666,0.0
137.0,0.0,973.3333333333334,17.6,0.0
137.0,1.0,933.3333333333334,17.613333333333333,0.0
137.0,0.0,933.3333333333334,17.626666666666665,0.0
135.0,0.0,933.3333333333334,17.64,0.0
133.0,0.0,933.3333333333334,17.653333333333332,0.0
131.0,0.0,933.3333333333334,17.666666666666668,0.0
130.0,0.0,933.3333333333334,17.68,0.0
128.0,0.0,933.3333333333334,17.69333333333333,0.0
127.0,0.0,933.3333333333334,17.706666666666667,0.0
125.0,0.0,933.3333333333334,17.72,0.0
123.0,0.0,933.3333333333334,17.733333333333334,0.0
121.0,0.0,933.3333333333334,17.746666666666666,0.0
119.0,0.0,933.3333333333334,17.76,0.0
116.0,0.0,933.3333333333334,17.773333333333333,0.0
113.0,0.0,933.3333333333334,17.786666666666665,0.0
110.0,0.0,933.3333333333334,17.8,0.0
107.0,0.0,933.3333333333334,17.813333333333333,0.0
105.0,0.0,933.3333333333334,17.826666666666668,0.0
104.0,0.0,933.3333333333334,17.84,0.0
103.0,0.0,933.3333333333334,17.85333333333333,0.0
102.0,0.0,933.3333333333334,17.866666666666667,0.0
101.0,0.0,933.3333333333334,17.88,0.0
100.0,0.0,933.3333333333334,17.893333333333334,0.0
99.0,0.0,933.3333333333334,17.906666666666666,0.0
98.0,0.0,933.3333333333334,17.92,0.0
97.0,0.0,933.3333333333334,17.933333333333334,0.0
96.0,0.0,933.3333333333334,17.946666666666665,0.0
95.0,0.0,933.3333333333334,17.96,0.0
94.0,0.0,933.3333333333334,17.973333333333333,0.0
93.0,0.0,933.3333333333334,17.986666666666668,0.0
92.0,0.0,933.3333333333334,18.0,0.0
91.0,0.0,933.3333333333334,18.013333333333332,0.0
89.0,0.0,933.3333333333334,18.026666666666667,0.0
88.0,0.0,933.3333333333334,18.04,0.0
87.0,0.0,933.3333333333334,18.053333333333335,0.0
86.0,0.0,933.3333333333334,18.066666666666666,0.0
85.0,0.0,933.3333333333334,18.08,0.0
85.0,0.0,933.3333333333334,18.093333333333334,0.0
84.0,0.0,933.3333333333334,18.106666666666666,0.0
84.0,0.0,933.3333333333334,18.12,0.0
84.0,0.0,933.3333333333334,18.133333333333333,0.0
84.0,0.0,933.3333333333334,18.14666666666667,0.0
83.0,0.0,933.3333333333334,18.16,0.0
83.0,0.0,933.3333333333334,18.173333333333332,0.0
83.0,0.0,933.3333333333334,18.186666666666667,0.0
83.0,0.0,933.3333333333334,18.2,0.0
83.0,0.0,933.3333333333334,18.213333333333335,0.0
83.0,0.0,933.3333333333334,18.226666666666667,0.0
83.0,0.0,933.3333333333334,18.24,0.0
84.0,0.0,933.3333333333334,18.253333333333334,0.0
84.0,0.0,933.3333333333334,18.266666666666666,0.0
85.0,0.0,933.3333333333334,18.28,0.0
86.0,0.0,933.3333333333334,18.293333333333333,0.0
87.0,0.0,933.3333333333334,18.30666666666667,0.0
87.0,0.0,933.3333333333334,18.32,0.0
88.0,0.0,933.3333333333334,18.333333333333332,0.0
88.0,0.0,933.3333333333334,18.346666666666668,0.0
88.0,0.0,933.3333333333334,18.36,0.0
89.0,0.0,933.3333333333334,18.373333333333335,0.0
91.0,0.0,933.3333333333334,18.386666666666667,0.0
94.0,0.0,933.3333333333334,18.4,0.0
101.0,0.0,933.3333333333334,18.413333333333334,0.0
109.0,0.0,933.3333333333334,18.426666666666666,0.0
118.0,0.0,933.3333333333334,18.44,0.0
127.0,0.0,933.3333333333334,18.453333333333333,0.0
135.0,0.0,933.3333333333334,18.466666666666665,0.0
140.0,0.0,933.3333333333334,18.48,0.0
143.0,0.0,933.3333333333334,18.493333333333332,0.0
143.0,1.0,893.3333333333333,18.506666666666668,0.0
142.0,0.0,893.3333333333333,18.52,0.0
140.0,0.0,893.3333333333333,18.533333333333335,0.0
137.0,0.0,893.3333333333333,18.546666666666667,0.0
135.0,0.0,893.3333333333333,18.56,0.0
132.0,0.0,893.3333333333333,18.573333333333334,0.0
130.0,0.0,893.3333333333333,18.586666666666666,0.0
128.0,0.0,893.3333333333333,18.6,0.0
126.0,0.0,893.3333333333333,18.613333333333333,0.0
123.0,0.0,893.3333333333333,18.626666666666665,0.0
120.0,0.0,893.3333333333333,18.64,0.0
117.0,0.0,893.3333333333333,18.653333333333332,0.0
114.0,0.0,893.3333333333333,18.666666666666668,0.0
111.0,0.0,893.3333333333333,18.68,0.0
107.0,0.0,893.3333333333333,18.69333333333333,0.0
105.0,0.0,893.3333333333333,18.706666666666667,0.0
102.0,0.0,893.3333333333333,18.72,0.0
101.0,0.0,893.3333333333333,18.733333333333334,0.0
99.0,0.0,893.3333333333333,18.746666666666666,0.0
98.0,0.0,893.3333333333333,18.76,0.0
97.0,0.0,893.3333333333333,18.773333333333333,0.0
96.0,0.0,893.3333333333333,18.786666666666665,0.0
95.0,0.0,893.3333333333333,18.8,0.0
94.0,0.0,893.3333333333333,18.813333333333333,0.0
93.0,0.0,893.3333333333333,18.826666666666668,0.0
91.0,0.0,893.3333333333333,18.84,0.0
90.0,0.0,893.3333333333333,18.85333333333333,0.0
89.0,0.0,893.3333333333333,18.866666666666667,0.0
88.0,0.0,893.3333333333333,18.88,0.0
87.0,0.0,893.3333333333333,18.893333333333334,0.0
86.0,0.0,893.3333333333333,18.906666666666666,0.0
85.0,0.0,893.3333333333333,18.92,0.0
84.0,0.0,893.3333333333333,18.933333333333334,0.0
83.0,0.0,893.3333333333333,18.946666666666665,0.0
82.0,0.0,893.3333333333333,18.96,0.0
81.0,0.0,893.3333333333333,18.973333333333333,0.0
81.0,0.0,893.3333333333333,18.986666666666668,0.0
80.0,0.0,893.3333333333333,19.0,0.0
79.0,0.0,893.3333333333333,19.013333333333332,0.0
79.0,0.0,893.3333333333333,19.026666666666667,0.0
79.0,0.0,893.3333333333333,19.04,0.0
78.0,0.0,893.3333333333333,19.053333333333335,0.0
78.0,0.0,893.3333333333333,19.066666666666666,0.0
78.0,0.0,893.3333333333333,19.08,0.0
78.0,0.0,893.3333333333333,19.093333333333334,0.0
78.0,0.0,893.3333333333333,19.106666666666666,0.0
78.0,0.0,893.3333333333333,19.12,0.0
78.0,0.0,893.3333333333333,19.133333333333333,0.0
78.0,0.0,893.3333333333333,19.14666666666667,0.0
78.0,0.0,893.3333333333333,19.16,0.0
78.0,0.0,893.3333333333333,19.173333333333332,0.0
78.0,0.0,893.3333333333333,19.186666666666667,0.0
78.0,0.0,893.3333333333333,19.2,0.0
77.0,0.0,893.3333333333333,19.213333333333335,0.0
77.0,0.0,893.3333333333333,19.226666666666667,0.0
77.0,0.0,893.3333333333333,19.24,0.0
77.0,0.0,893.3333333333333,19.253333333333334,0.0
77.0,0.0,893.3333333333333,19.266666666666666,0.0
78.0,0.0,893.3333333333333,19.28,5.0
80.0,0.0,893.3333333333333,19.293333333333333,0.0
86.0,0.0,893.3333333333333,19.30666666666667,0.0
94.0,0.0,893.3333333333333,19.32,0.0
104.0,0.0,893.3333333333333,19.333333333333332,0.0
115.0,0.0,893.3333333333333,19.346666666666668,0.0
126.0,0.0,893.3333333333333,19.36,0.0
134.0,0.0,893.3333333333333,19.373333333333335,0.0
140.0,0.0,893.3333333333333,19.386666666666667,0.0
142.0,0.0,893.3333333333333,19.4,0.0
142.0,1.0,906.6666666666666,19.413333333333334,0.0
141.0,0.0,906.6666666666666,19.426666666666666,0.0
139.0,0.0,906.6666666666666,19.44,0.0
136.0,0.0,906.6666666666666,19.453333333333333,0.0
134.0,0.0,906.6666666666666,19.466666666666665,0.0
131.0,0.0,906.6666666666666,19.48,0.0
129.0,0.0,906.6666666666666,19.493333333333332,0.0
127.0,0.0,906.6666666666666,19.506666666666668,0.0
126.0,0.0,906.6666666666666,19.52,0.0
124.0,0.0,906.6666666666666,19.533333333333335,0.0
121.0,0.0,906.6666666666666,19.546666666666667,0.0
119.0,0.0,906.6666666666666,19.56,2.0
116.0,0.0,906.6666666666666,19.573333333333334,0.0
113.0,0.0,906.6666666666666,19.586666666666666,0.0
111.0,0.0,906.6666666666666,19.6,0.0
108.0,0.0,906.6666666666666,19.613333333333333,0.0
107.0,0.0,906.6666666666666,19.626666666666665,0.0
105.0,0.0,906.6666666666666,19.64,0.0
104.0,0.0,906.6666666666666,19.653333333333332,0.0
103.0,0.0,906.6666666666666,19.666666666666668,0.0
102.0,0.0,906.6666666666666,19.68,0.0
101.0,0.0,906.6666666666666,19.69333333333333,0.0
100.0,0.0,906.6666666666666,19.706666666666667,0.0
99.0,0.0,906.6666666666666,19.72,0.0
97.0,0.0,906.6666666666666,19.733333333333334,0.0
95.0,0.0,906.6666666666666,19.746666666666666,0.0
94.0,0.0,906.6666666666666,19.76,0.0
92.0,0.0,906.6666666666666,19.773333333333333,0.0
90.0,0.0,906.6666666666666,19.786666666666665,0.0
89.0,0.0,906.6666666666666,19.8,0.0
88.0,0.0,906.6666666666666,19.813333333333333,0.0
87.0,0.0,906.6666666666666,19.826666666666668,0.0
86.0,0.0,906.6666666666666,19.84,0.0
86.0,0.0,906.6666666666666,19.85333333333333,0.0
85.0,0.0,906.6666666666666,19.866666666666667,0.0
85.0,0.0,906.6666666666666,19.88,0.0
85.0,0.0,906.6666666666666,19.893333333333334,0.0
85.0,0.0,906.6666666666666,19.906666666666666,0.0
85.0,0.0,906.6666666666666,19.92,0.0
85.0,0.0,906.6666666666666,19.933333333333334,0.0
85.0,0.0,906.6666666666666,19.946666666666665,0.0
85.0,0.0,906.6666666666666,19.96,0.0
84.0,0.0,906.6666666666666,19.973333333333333,0.0
83.0,0.0,906.6666666666666,19.986666666666668,0.0
81.0,0.0,906.6666666666666,20.0,0.0
80.0,0.0,906.6666666666666,20.013333333333332,0.0
78.0,0.0,906.6666666666666,20.026666666666667,0.0
77.0,0.0,906.6666666666666,20.04,0.0
76.0,0.0,906.6666666666666,20.053333333333335,0.0
75.0,0.0,906.6666666666666,20.066666666666666,0.0
74.0,0.0,906.6666666666666,20.08,0.0
74.0,0.0,906.6666666666666,20.093333333333334,0.0
74.0,0.0,906.6666666666666,20.106666666666666,0.0
75.0,0.0,906.6666666666666,20.12,0.0
76.0,0.0,906.6666666666666,20.133333333333333,0.0
77.0,0.0,906.6666666666666,20.14666666666667,0.0
78.0,0.0,906.6666666666666,20.16,0.0
79.0,0.0,906.6666666666666,20.173333333333332,0.0
80.0,0.0,906.6666666666666,20.186666666666667,0.0
80.0,0.0,906.6666666666666,20.2,0.0
80.0,0.0,906.6666666666666,20.213333333333335,0.0
80.0,0.0,906.6666666666666,20.226666666666667,0.0
80.0,0.0,906.6666666666666,20.24,0.0
81.0,0.0,906.6666666666666,20.253333333333334,0.0
83.0,0.0,906.6666666666666,20.266666666666666,0.0
87.0,0.0,906.6666666666666,20.28,0.0
94.0,0.0,906.6666666666666,20.293333333333333,0.0
104.0,0.0,906.6666666666666,20.30666666666667,0.0
115.0,0.0,906.6666666666666,20.32,0.0
125.0,0.0,906.6666666666666,20.333333333333332,0.0
133.0,0.0,906.6666666666666,20.346666666666668,0.0
139.0,0.0,906.6666666666666,20.36,0.0
142.0,0.0,906.6666666666666,20.373333333333335,0.0
142.0,1.0,973.3333333333334,20.386666666666667,0.0
141.0,0.0,973.3333333333334,20.4,0.0
139.0,0.0,973.3333333333334,20.413333333333334,0.0
137.0,0.0,973.3333333333334,20.426666666666666,0.0
136.0,0.0,973.3333333333334,20.44,0.0
134.0,0.0,973.3333333333334,20.453333333333333,0.0
132.0,0.0,973.3333333333334,20.466666666666665,0.0
131.0,0.0,973.3333333333334,20.48,0.0
130.0,0.0,973.3333333333334,20.493333333333332,0.0
128.0,0.0,973.3333333333334,20.506666666666668,0.0
125.0,0.0,973.3333333333334,20.52,0.0
123.0,0.0,973.3333333333334,20.533333333333335,0.0
120.0,0.0,973.3333333333334,20.546666666666667,0.0
117.0,0.0,973.3333333333334,20.56,0.0
114.0,0.0,973.3333333333334,20.573333333333334,0.0
112.0,0.0,973.3333333333334,20.586666666666666,0.0
111.0,0.0,973.3333333333334,20.6,0.0
109.0,0.0,973.3333333333334,20.613333333333333,0.0
109.0,0.0,973.3333333333334,20.626666666666665,0.0
108.0,0.0,973.3333333333334,20.64,0.0
107.0,0.0,973.3333333333334,20.653333333333332,0.0
106.0,0.0,973.3333333333334,20.666666666666668,0.0
105.0,0.0,973.3333333333334,20.68,0.0
104.0,0.0,973.3333333333334,20.69333333333333,0.0
103.0,0.0,973.3333333333334,20.706666666666667,0.0
102.0,0.0,973.3333333333334,20.72,0.0
100.0,0.0,973.3333333333334,20.733333333333334,0.0
99.0,0.0,973.3333333333334,20.746666666666666,0.0
98.0,0.0,973.3333333333334,20.76,0.0
97.0,0.0,973.3333333333334,20.773333333333333,0.0
96.0,0.0,973.3333333333334,20.786666666666665,0.0
94.0,0.0,973.3333333333334,20.8,0.0
93.0,0.0,973.3333333333334,20.813333333333333,0.0
92.0,0.0,973.3333333333334,20.826666666666668,0.0
91.0,0.0,973.3333333333334,20.84,0.0
89.0,0.0,973.3333333333334,20.85333333333333,0.0
88.0,0.0,973.3333333333334,20.866666666666667,0.0
86.0,0.0,973.3333333333334,20.88,0.0
85.0,0.0,973.3333333333334,20.893333333333334,0.0
84.0,0.0,973.3333333333334,20.906666666666666,0.0
82.0,0.0,973.3333333333334,20.92,0.0
81.0,0.0,973.3333333333334,20.933333333333334,0.0
80.0,0.0,973.3333333333334,20.946666666666665,0.0
79.0,0.0,973.3333333333334,20.96,0.0
78.0,0.0,973.3333333333334,20.973333333333333,0.0
77.0,0.0,973.3333333333334,20.986666666666668,0.0
76.0,0.0,973.3333333333334,21.0,0.0
75.0,0.0,973.3333333333334,21.013333333333332,0.0
75.0,0.0,973.3333333333334,21.026666666666667,0.0
74.0,0.0,973.3333333333334,21.04,0.0
74.0,0.0,973.3333333333334,21.053333333333335,0.0
74.0,0.0,973.3333333333334,21.066666666666666,0.0
74.0,0.0,973.3333333333334,21.08,0.0
74.0,0.0,973.3333333333334,21.093333333333334,0.0
74.0,0.0,973.3333333333334,21.106666666666666,0.0
74.0,0.0,973.3333333333334,21.12,0.0
74.0,0.0,973.3333333333334,21.133333333333333,0.0
74.0,0.0,973.3333333333334,21.14666666666667,0.0
74.0,0.0,973.3333333333334,21.16,0.0
75.0,0.0,973.3333333333334,21.173333333333332,0.0
78.0,0.0,973.3333333333334,21.186666666666667,0.0
84.0,0.0,973.3333333333334,21.2,0.0
92.0,0.0,973.3333333333334,21.213333333333335,0.0
103.0,0.0,973.3333333333334,21.226666666666667,0.0
114.0,0.0,973.3333333333334,21.24,0.0
124.0,0.0,973.3333333333334,21.253333333333334,0.0
132.0,0.0,973.3333333333334,21.266666666666666,0.0
137.0,0.0,973.3333333333334,21.28,0.0
140.0,0.0,973.3333333333334,21.293333333333333,0.0
140.0,1.0,920.0,21.30666666666667,0.0
139.0,0.0,920.0,21.32,0.0
137.0,0.0,920.0,21.333333333333332,0.0
135.0,0.0,920.0,21.346666666666668,0.0
132.0,0.0,920.0,21.36,0.0
130.0,0.0,920.0,21.373333333333335,0.0
128.0,0.0,920.0,21.386666666666667,0.0
126.0,0.0,920.0,21.4,0.0
124.0,0.0,920.0,21.413333333333334,0.0
122.0,0.0,920.0,21.426666666666666,0.0
120.0,0.0,920.0,21.44,0.0
118.0,0.0,920.0,21.453333333333333,0.0
115.0,0.0,920.0,21.466666666666665,0.0
112.0,0.0,920.0,21.48,0.0
110.0,0.0,920.0,21.493333333333332,0.0
108.0,0.0,920.0,21.506666666666668,0.0
106.0,0.0,920.0,21.52,0.0
105.0,0.0,920.0,21.533333333333335,0.0
104.0,0.0,920.0,21.546666666666667,0.0
103.0,0.0,920.0,21.56,0.0
103.0,0.0,920.0,21.573333333333334,0.0
102.0,0.0,920.0,21.586666666666666,0.0
101.0,0.0,920.0,21.6,0.0
100.0,0.0,920.0,21.613333333333333,0.0
99.0,0.0,920.0,21.626666666666665,0.0
98.0,0.0,920.0,21.64,0.0
97.0,0.0,920.0,21.653333333333332,0.0
95.0,0.0,920.0,21.666666666666668,0.0
94.0,0.0,920.0,21.68,0.0
92.0,0.0,920.0,21.69333333333333,0.0
91.0,0.0,920.0,21.706666666666667,0.0
89.0,0.0,920.0,21.72,0.0
88.0,0.0,920.0,21.733333333333334,0.0
87.0,0.0,920.0,21.746666666666666,0.0
86.0,0.0,920.0,21.76,0.0
85.0,0.0,920.0,21.773333333333333,0.0
85.0,0.0,920.0,21.786666666666665,0.0
85.0,0.0,920.0,21.8,0.0
84.0,0.0,920.0,21.813333333333333,0.0
84.0,0.0,920.0,21.826666666666668,0.0
84.0,0.0,920.0,21.84,0.0
84.0,0.0,920.0,21.85333333333333,0.0
84.0,0.0,920.0,21.866666666666667,0.0
84.0,0.0,920.0,21.88,0.0
84.0,0.0,920.0,21.893333333333334,0.0
83.0,0.0,920.0,21.906666666666666,0.0
83.0,0.0,920.0,21.92,0.0
83.0,0.0,920.0,21.933333333333334,0.0
82.0,0.0,920.0,21.946666666666665,0.0
82.0,0.0,920.0,21.96,0.0
82.0,0.0,920.0,21.973333333333333,0.0
82.0,0.0,920.0,21.986666666666668,0.0
83.0,0.0,920.0,22.0,0.0
86.0,0.0,920.0,22.013333333333332,0.0
92.0,0.0,920.0,22.026666666666667,0.0
99.0,0.0,920.0,22.04,0.0
109.0,0.0,920.0,22.053333333333335,0.0
119.0,0.0,920.0,22.066666666666666,0.0
127.0,0.0,920.0,22.08,0.0
133.0,0.0,920.0,22.093333333333334,0.0
137.0,0.0,920.0,22.106666666666666,0.0
138.0,0.0,920.0,22.12,0.0
138.0,1.0,826.6666666666666,22.133333333333333,0.0
136.0,0.0,826.6666666666666,22.14666666666667,0.0
134.0,0.0,826.6666666666666,22.16,0.0
132.0,0.0,826.6666666666666,22.173333333333332,0.0
129.0,0.0,826.6666666666666,22.186666666666667,0.0
127.0,0.0,826.6666666666666,22.2,0.0
125.0,0.0,826.6666666666666,22.213333333333335,0.0
123.0,0.0,826.6666666666666,22.226666666666667,0.0
120.0,0.0,826.6666666666666,22.24,0.0
118.0,0.0,826.6666666666666,22.253333333333334,0.0
115.0,0.0,826.6666666666666,22.266666666666666,0.0
112.0,0.0,826.6666666666666,22.28,0.0
109.0,0.0,826.6666666666666,22.293333333333333,0.0
106.0,0.0,826.6666666666666,22.30666666666667,0.0
104.0,0.0,826.6666666666666,22.32,0.0
102.0,0.0,826.6666666666666,22.333333333333332,0.0
100.0,0.0,826.6666666666666,22.346666666666668,0.0
99.0,0.0,826.6666666666666,22.36,0.0
98.0,0.0,826.6666666666666,22.373333333333335,0.0
97.0,0.0,826.6666666666666,22.386666666666667,0.0
96.0,0.0,826.6666666666666,22.4,0.0
95.0,0.0,826.6666666666666,22.413333333333334,0.0
94.0,0.0,826.6666666666666,22.426666666666666,0.0
93.0,0.0,826.6666666666666,22.44,0.0
92.0,0.0,826.6666666666666,22.453333333333333,0.0
91.0,0.0,826.6666666666666,22.466666666666665,0.0
90.0,0.0,826.6666666666666,22.48,0.0
89.0,0.0,826.6666666666666,22.493333333333332,0.0
87.0,0.0,826.6666666666666,22.506666666666668,0.0
86.0,0.0,826.6666666666666,22.52,0.0
85.0,0.0,826.6666666666666,22.533333333333335,0.0
84.0,0.0,826.6666666666666,22.546666666666667,0.0
84.0,0.0,826.6666666666666,22.56,0.0
83.0,0.0,826.6666666666666,22.573333333333334,0.0
82.0,0.0,826.6666666666666,22.586666666666666,0.0
82.0,0.0,826.6666666666666,22.6,0.0
81.0,0.0,826.6666666666666,22.613333333333333,0.0
81.0,0.0,826.6666666666666,22.626666666666665,0.0
80.0,0.0,826.6666666666666,22.64,0.0
80.0,0.0,826.6666666666666,22.653333333333332,0.0
80.0,0.0,826.6666666666666,22.666666666666668,0.0
80.0,0.0,826.6666666666666,22.68,0.0
79.0,0.0,826.6666666666666,22.69333333333333,0.0
79.0,0.0,826.6666666666666,22.706666666666667,0.0
79.0,0.0,826.6666666666666,22.72,0.0
79.0,0.0,826.6666666666666,22.733333333333334,0.0
79.0,0.0,826.6666666666666,22.746666666666666,0.0
78.0,0.0,826.6666666666666,22.76,0.0
78.0,0.0,826.6666666666666,22.773333333333333,0.0
78.0,0.0,826.6666666666666,22.786666666666665,0.0
79.0,0.0,826.6666666666666,22.8,0.0
81.0,0.0,826.6666666666666,22.813333333333333,0.0
86.0,0.0,826.6666666666666,22.826666666666668,0.0
94.0,0.0,826.6666666666666,22.84,0.0
103.0,0.0,826.6666666666666,22.85333333333333,0.0
114.0,0.0,826.6666666666666,22.866666666666667,0.0
123.0,0.0,826.6666666666666,22.88,0.0
131.0,0.0,826.6666666666666,22.893333333333334,0.0
135.0,0.0,826.6666666666666,22.906666666666666,0.0
138.0,0.0,826.6666666666666,22.92,0.0
138.0,1.0,800.0,22.933333333333334,0.0
136.0,0.0,800.0,22.946666666666665,0.0
134.0,0.0,800.0,22.96,0.0
132.0,0.0,800.0,22.973333333333333,0.0
130.0,0.0,800.0,22.986666666666668,0.0
128.0,0.0,800.0,23.0,0.0
125.0,0.0,800.0,23.013333333333332,0.0
123.0,0.0,800.0,23.026666666666667,0.0
121.0,0.0,800.0,23.04,0.0
119.0,0.0,800.0,23.053333333333335,0.0
117.0,0.0,800.0,23.066666666666666,0.0
114.0,0.0,800.0,23.08,0.0
111.0,0.0,800.0,23.093333333333334,0.0
108.0,0.0,800.0,23.106666666666666,0.0
105.0,0.0,800.0,23.12,0.0
103.0,0.0,800.0,23.133333333333333,0.0
102.0,0.0,800.0,23.14666666666667,0.0
100.0,0.0,800.0,23.16,0.0
99.0,0.0,800.0,23.173333333333332,0.0
98.0,0.0,800.0,23.186666666666667,0.0
97.0,0.0,800.0,23.2,0.0
96.0,0.0,800.0,23.213333333333335,0.0
95.0,0.0,800.0,23.226666666666667,0.0
93.0,0.0,800.0,23.24,0.0
92.0,0.0,800.0,23.253333333333334,0.0
91.0,0.0,800.0,23.266666666666666,0.0
89.0,0.0,800.0,23.28,0.0
88.0,0.0,800.0,23.293333333333333,0.0
87.0,0.0,800.0,23.30666666666667,0.0
85.0,0.0,800.0,23.32,0.0
84.0,0.0,800.0,23.333333333333332,0.0
83.0,0.0,800.0,23.346666666666668,0.0
82.0,0.0,800.0,23.36,0.0
82.0,0.0,800.0,23.373333333333335,0.0
81.0,0.0,800.0,23.386666666666667,0.0
81.0,0.0,800.0,23.4,0.0
80.0,0.0,800.0,23.413333333333334,0.0
80.0,0.0,800.0,23.426666666666666,0.0
80.0,0.0,800.0,23.44,0.0
79.0,0.0,800.0,23.453333333333333,0.0
79.0,0.0,800.0,23.466666666666665,0.0
79.0,0.0,800.0,23.48,0.0
78.0,0.0,800.0,23.493333333333332,0.0
78.0,0.0,800.0,23.506666666666668,0.0
78.0,0.0,800.0,23.52,0.0
78.0,0.0,800.0,23.533333333333335,0.0
78.0,0.0,800.0,23.546666666666667,0.0
78.0,0.0,800.0,23.56,0.0
78.0,0.0,800.0,23.573333333333334,0.0
78.0,0.0,800.0,23.586666666666666,0.0
78.0,0.0,800.0,23.6,0.0
77.0,0.0,800.0,23.613333333333333,0.0
77.0,0.0,800.0,23.626666666666665,0.0
77.0,0.0,800.0,23.64,0.0
77.0,0.0,800.0,23.653333333333332,0.0
79.0,0.0,800.0,23.666666666666668,0.0
84.0,0.0,800.0,23.68,0.0
92.0,0.0,800.0,23.69333333333333,0.0
102.0,0.0,800.0,23.706666666666667,0.0
114.0,0.0,800.0,23.72,0.0
125.0,0.0,800.0,23.733333333333334,0.0
134.0,0.0,800.0,23.746666666666666,0.0
141.0,0.0,800.0,23.76,0.0
144.0,0.0,800.0,23.773333333333333,0.0
144.0,1.0,853.3333333333334,23.786666666666665,0.0
143.0,0.0,853.3333333333334,23.8,0.0
141.0,0.0,853.3333333333334,23.813333333333333,0.0
139.0,0.0,853.3333333333334,23.826666666666668,0.0
136.0,0.0,853.3333333333334,23.84,0.0
134.0,0.0,853.3333333333334,23.85333333333333,0.0
131.0,0.0,853.3333333333334,23.866666666666667,0.0
129.0,0.0,853.3333333333334,23.88,0.0
127.0,0.0,853.3333333333334,23.893333333333334,0.0
125.0,0.0,853.3333333333334,23.906666666666666,0.0
122.0,0.0,853.3333333333334,23.92,0.0
119.0,0.0,853.3333333333334,23.933333333333334,0.0
116.0,0.0,853.3333333333334,23.946666666666665,0.0
113.0,0.0,853.3333333333334,23.96,0.0
110.0,0.0,853.3333333333334,23.973333333333333,0.0
107.0,0.0,853.3333333333334,23.986666666666668,0.0
105.0,0.0,853.3333333333334,24.0,0.0
104.0,0.0,853.3333333333334,24.013333333333332,0.0
102.0,0.0,853.3333333333334,24.026666666666667,0.0
101.0,0.0,853.3333333333334,24.04,0.0
100.0,0.0,853.3333333333334,24.053333333333335,0.0
99.0,0.0,853.3333333333334,24.066666666666666,0.0
97.0,0.0,853.3333333333334,24.08,0.0
96.0,0.0,853.3333333333334,24.093333333333334,0.0
94.0,0.0,853.3333333333334,24.106666666666666,0.0
93.0,0.0,853.3333333333334,24.12,0.0
91.0,0.0,853.3333333333334,24.133333333333333,0.0
90.0,0.0,853.3333333333334,24.14666666666667,0.0
89.0,0.0,853.3333333333334,24.16,0.0
87.0,0.0,853.3333333333334,24.173333333333332,0.0
86.0,0.0,853.3333333333334,24.186666666666667,0.0
85.0,0.0,853.3333333333334,24.2,0.0
84.0,0.0,853.3333333333334,24.213333333333335,0.0
83.0,0.0,853.3333333333334,24.226666666666667,0.0
82.0,0.0,853.3333333333334,24.24,0.0
82.0,0.0,853.3333333333334,24.253333333333334,0.0
81.0,0.0,853.3333333333334,24.266666666666666,0.0
81.0,0.0,853.3333333333334,24.28,0.0
80.0,0.0,853.3333333333334,24.293333333333333,0.0
80.0,0.0,853.3333333333334,24.30666666666667,0.0
79.0,0.0,853.3333333333334,24.32,0.0
79.0,0.0,853.3333333333334,24.333333333333332,0.0
79.0,0.0,853.3333333333334,24.346666666666668,0.0
79.0,0.0,853.3333333333334,24.36,0.0
78.0,0.0,853.3333333333334,24.373333333333335,0.0
78.0,0.0,853.3333333333334,24.386666666666667,0.0
78.0,0.0,853.3333333333334,24.4,0.0
78.0,0.0,853.3333333333334,24.413333333333334,0.0
78.0,0.0,853.3333333333334,24.426666666666666,0.0
77.0,0.0,853.3333333333334,24.44,0.0
77.0,0.0,853.3333333333334,24.453333333333333,0.0
77.0,0.0,853.3333333333334,24.466666666666665,0.0
77.0,0.0,853.3333333333334,24.48,0.0
77.0,0.0,853.3333333333334,24.493333333333332,0.0
77.0,0.0,853.3333333333334,24.506666666666668,0.0
77.0,0.0,853.3333333333334,24.52,0.0
77.0,0.0,853.3333333333334,24.533333333333335,0.0
77.0,0.0,853.3333333333334,24.546666666666667,0.0
77.0,0.0,853.3333333333334,24.56,0.0
77.0,0.0,853.3333333333334,24.573333333333334,0.0
78.0,0.0,853.3333333333334,24.586666666666666,0.0
78.0,0.0,853.3333333333334,24.6,0.0
78.0,0.0,853.3333333333334,24.613333333333333,0.0
79.0,0.0,853.3333333333334,24.626666666666665,0.0
79.0,0.0,853.3333333333334,24.64,0.0
79.0,0.0,853.3333333333334,24.653333333333332,0.0
80.0,0.0,853.3333333333334,24.666666666666668,0.0
83.0,0.0,853.3333333333334,24.68,0.0
89.0,0.0,853.3333333333334,24.69333333333333,0.0
97.0,0.0,853.3333333333334,24.706666666666667,0.0
109.0,0.0,853.3333333333334,24.72,0.0
123.0,0.0,853.3333333333334,24.733333333333334,0.0
136.0,0.0,853.3333333333334,24.746666666666666,0.0
146.0,0.0,853.3333333333334,24.76,0.0
153.0,0.0,853.3333333333334,24.773333333333333,0.0
157.0,0.0,853.3333333333334,24.786666666666665,0.0
157.0,1.0,1013.3333333333334,24.8,0.0
156.0,0.0,1013.3333333333334,24.813333333333333,0.0
153.0,0.0,1013.3333333333334,24.826666666666668,0.0
150.0,0.0,1013.3333333333334,24.84,0.0
147.0,0.0,1013.3333333333334,24.85333333333333,0.0
144.0,0.0,1013.3333333333334,24.866666666666667,0.0
141.0,0.0,1013.3333333333334,24.88,0.0
138.0,0.0,1013.3333333333334,24.893333333333334,0.0
136.0,0.0,1013.3333333333334,24.906666666666666,0.0
133.0,0.0,1013.3333333333334,24.92,0.0
130.0,0.0,1013.3333333333334,24.933333333333334,0.0
126.0,0.0,1013.3333333333334,24.946666666666665,0.0
123.0,0.0,1013.3333333333334,24.96,0.0
120.0,0.0,1013.3333333333334,24.973333333333333,0.0
117.0,0.0,1013.3333333333334,24.986666666666668,0.0
114.0,0.0,1013.3333333333334,25.0,0.0
112.0,0.0,1013.3333333333334,25.013333333333332,0.0
110.0,0.0,1013.3333333333334,25.026666666666667,0.0
108.0,0.0,1013.3333333333334,25.04,0.0
107.0,0.0,1013.3333333333334,25.053333333333335,0.0
105.0,0.0,1013.3333333333334,25.066666666666666,0.0
103.0,0.0,1013.3333333333334,25.08,0.0
102.0,0.0,1013.3333333333334,25.093333333333334,0.0
100.0,0.0,1013.3333333333334,25.106666666666666,0.0
98.0,0.0,1013.3333333333334,25.12,0.0
96.0,0.0,1013.3333333333334,25.133333333333333,3.0
94.0,0.0,1013.3333333333334,25.14666666666667,0.0
93.0,0.0,1013.3333333333334,25.16,0.0
91.0,0.0,1013.3333333333334,25.173333333333332,0.0
89.0,0.0,1013.3333333333334,25.186666666666667,0.0
88.0,0.0,1013.3333333333334,25.2,0.0
87.0,0.0,1013.3333333333334,25.213333333333335,0.0
86.0,0.0,1013.3333333333334,25.226666666666667,0.0
84.0,0.0,1013.3333333333334,25.24,0.0
84.0,0.0,1013.3333333333334,25.253333333333334,0.0
83.0,0.0,1013.3333333333334,25.266666666666666,0.0
82.0,0.0,1013.3333333333334,25.28,0.0
81.0,0.0,1013.3333333333334,25.293333333333333,0.0
81.0,0.0,1013.3333333333334,25.30666666666667,0.0
81.0,0.0,1013.3333333333334,25.32,0.0
80.0,0.0,1013.3333333333334,25.333333333333332,0.0
80.0,0.0,1013.3333333333334,25.346666666666668,0.0
79.0,0.0,1013.3333333333334,25.36,0.0
79.0,0.0,1013.3333333333334,25.373333333333335,0.0
79.0,0.0,1013.3333333333334,25.386666666666667,0.0
78.0,0.0,1013.3333333333334,25.4,0.0
78.0,0.0,1013.3333333333334,25.413333333333334,0.0
78.0,0.0,1013.3333333333334,25.426666666666666,0.0
78.0,0.0,1013.3333333333334,25.44,0.0
77.0,0.0,1013.3333333333334,25.453333333333333,0.0
77.0,0.0,1013.3333333333334,25.466666666666665,0.0
77.0,0.0,1013.3333333333334,25.48,0.0
76.0,0.0,1013.3333333333334,25.493333333333332,0.0
76.0,0.0,1013.3333333333334,25.506666666666668,0.0
76.0,0.0,1013.3333333333334,25.52,0.0
76.0,0.0,1013.3333333333334,25.533333333333335,0.0
76.0,0.0,1013.3333333333334,25.546666666666667,0.0
77.0,0.0,1013.3333333333334,25.56,0.0
77.0,0.0,1013.3333333333334,25.573333333333334,0.0
77.0,0.0,1013.3333333333334,25.586666666666666,0.0
77.0,0.0,1013.3333333333334,25.6,0.0
78.0,0.0,1013.3333333333334,25.613333333333333,0.0
78.0,0.0,1013.3333333333334,25.626666666666665,0.0
78.0,0.0,1013.3333333333334,25.64,0.0
79.0,0.0,1013.3333333333334,25.653333333333332,0.0
79.0,0.0,1013.3333333333334,25.666666666666668,0.0
80.0,0.0,1013.3333333333334,25.68,0.0
84.0,0.0,1013.3333333333334,25.69333333333333,0.0
90.0,0.0,1013.3333333333334,25.706666666666667,0.0
100.0,0.0,1013.3333333333334,25.72,0.0
112.0,0.0,1013.3333333333334,25.733333333333334,0.0
125.0,0.0,1013.3333333333334,25.746666666666666,0.0
138.0,0.0,1013.3333333333334,25.76,0.0
147.0,0.0,1013.3333333333334,25.773333333333333,0.0
154.0,0.0,1013.3333333333334,25.786666666666665,0.0
156.0,0.0,1013.3333333333334,25.8,0.0
156.0,1.0,1013.3333333333334,25.813333333333333,0.0
155.0,0.0,1013.3333333333334,25.826666666666668,0.0
152.0,0.0,1013.3333333333334,25.84,0.0
149.0,0.0,1013.3333333333334,25.85333333333333,0.0
146.0,0.0,1013.3333333333334,25.866666666666667,0.0
143.0,0.0,1013.3333333333334,25.88,0.0
140.0,0.0,1013.3333333333334,25.893333333333334,0.0
138.0,0.0,1013.3333333333334,25.906666666666666,0.0
135.0,0.0,1013.3333333333334,25.92,0.0
132.0,0.0,1013.3333333333334,25.933333333333334,0.0
129.0,0.0,1013.3333333333334,25.946666666666665,0.0
125.0,0.0,1013.3333333333334,25.96,0.0
122.0,0.0,1013.3333333333334,25.973333333333333,0.0
119.0,0.0,1013.3333333333334,25.986666666666668,0.0
116.0,0.0,1013.3333333333334,26.0,0.0
113.0,0.0,1013.3333333333334,26.013333333333332,0.0
111.0,0.0,1013.3333333333334,26.026666666666667,0.0
109.0,0.0,1013.3333333333334,26.04,0.0
107.0,0.0,1013.3333333333334,26.053333333333335,0.0
106.0,0.0,1013.3333333333334,26.066666666666666,0.0
104.0,0.0,1013.3333333333334,26.08,0.0
103.0,0.0,1013.3333333333334,26.093333333333334,0.0
101.0,0.0,1013.3333333333334,26.106666666666666,0.0
99.0,0.0,1013.3333333333334,26.12,0.0
97.0,0.0,1013.3333333333334,26.133333333333333,0.0
95.0,0.0,1013.3333333333334,26.14666666666667,0.0
93.0,0.0,1013.3333333333334,26.16,0.0
91.0,0.0,1013.3333333333334,26.173333333333332,0.0
90.0,0.0,1013.3333333333334,26.186666666666667,0.0
88.0,0.0,1013.3333333333334,26.2,0.0
87.0,0.0,1013.3333333333334,26.213333333333335,0.0
86.0,0.0,1013.3333333333334,26.226666666666667,0.0
85.0,0.0,1013.3333333333334,26.24,0.0
84.0,0.0,1013.3333333333334,26.253333333333334,0.0
83.0,0.0,1013.3333333333334,26.266666666666666,0.0
82.0,0.0,1013.3333333333334,26.28,0.0
81.0,0.0,1013.3333333333334,26.293333333333333,0.0
81.0,0.0,1013.3333333333334,26.30666666666667,0.0
80.0,0.0,1013.3333333333334,26.32,0.0
80.0,0.0,1013.3333333333334,26.333333333333332,0.0
80.0,0.0,1013.3333333333334,26.346666666666668,0.0
79.0,0.0,1013.3333333333334,26.36,0.0
79.0,0.0,1013.3333333333334,26.373333333333335,0.0
78.0,0.0,1013.3333333333334,26.386666666666667,0.0
78.0,0.0,1013.3333333333334,26.4,0.0
78.0,0.0,1013.3333333333334,26.413333333333334,0.0
77.0,0.0,1013.3333333333334,26.426666666666666,0.0
77.0,0.0,1013.3333333333334,26.44,0.0
77.0,0.0,1013.3333333333334,26.453333333333333,0.0
77.0,0.0,1013.3333333333334,26.466666666666665,0.0
76.0,0.0,1013.3333333333334,26.48,0.0
76.0,0.0,1013.3333333333334,26.493333333333332,0.0
76.0,0.0,1013.3333333333334,26.506666666666668,0.0
76.0,0.0,1013.3333333333334,26.52,0.0
76.0,0.0,1013.3333333333334,26.533333333333335,0.0
76.0,0.0,1013.3333333333334,26.546666666666667,0.0
76.0,0.0,1013.3333333333334,26.56,0.0
76.0,0.0,1013.3333333333334,26.573333333333334,0.0
77.0,0.0,1013.3333333333334,26.586666666666666,0.0
77.0,0.0,1013.3333333333334,26.6,0.0
77.0,0.0,1013.3333333333334,26.613333333333333,0.0
78.0,0.0,1013.3333333333334,26.626666666666665,0.0
78.0,0.0,1013.3333333333334,26.64,0.0
78.0,0.0,1013.3333333333334,26.653333333333332,0.0
80.0,0.0,1013.3333333333334,26.666666666666668,0.0
83.0,0.0,1013.3333333333334,26.68,0.0
89.0,0.0,1013.3333333333334,26.69333333333333,0.0
99.0,0.0,1013.3333333333334,26.706666666666667,0.0
111.0,0.0,1013.3333333333334,26.72,0.0
124.0,0.0,1013.3333333333334,26.733333333333334,0.0
136.0,0.0,1013.3333333333334,26.746666666666666,0.0
146.0,0.0,1013.3333333333334,26.76,0.0
152.0,0.0,1013.3333333333334,26.773333333333333,0.0
155.0,0.0,1013.3333333333334,26.786666666666665,0.0
155.0,1.0,986.6666666666667,26.8,0.0
154.0,0.0,986.6666666666667,26.813333333333333,0.0
151.0,0.0,986.6666666666667,26.826666666666668,0.0
148.0,0.0,986.6666666666667,26.84,0.0
145.0,0.0,986.6666666666667,26.85333333333333,0.0
143.0,0.0,986.6666666666667,26.866666666666667,0.0
140.0,0.0,986.6666666666667,26.88,0.0
138.0,0.0,986.6666666666667,26.893333333333334,0.0
135.0,0.0,986.6666666666667,26.906666666666666,0.0
132.0,0.0,986.6666666666667,26.92,0.0
129.0,0.0,986.6666666666667,26.933333333333334,0.0
126.0,0.0,986.6666666666667,26.946666666666665,0.0
122.0,0.0,986.6666666666667,26.96,0.0
119.0,0.0,986.6666666666667,26.973333333333333,0.0
116.0,0.0,986.6666666666667,26.986666666666668,0.0
114.0,0.0,986.6666666666667,27.0,0.0
111.0,0.0,986.6666666666667,27.013333333333332,0.0
110.0,0.0,986.6666666666667,27.026666666666667,0.0
108.0,0.0,986.6666666666667,27.04,0.0
106.0,0.0,986.6666666666667,27.053333333333335,0.0
105.0,0.0,986.6666666666667,27.066666666666666,0.0
103.0,0.0,986.6666666666667,27.08,0.0
101.0,0.0,986.6666666666667,27.093333333333334,0.0
100.0,0.0,986.6666666666667,27.106666666666666,0.0
98.0,0.0,986.6666666666667,27.12,0.0
96.0,0.0,986.6666666666667,27.133333333333333,0.0
94.0,0.0,986.6666666666667,27.14666666666667,0.0
92.0,0.0,986.6666666666667,27.16,0.0
91.0,0.0,986.6666666666667,27.173333333333332,0.0
89.0,0.0,986.6666666666667,27.186666666666667,0.0
88.0,0.0,986.6666666666667,27.2,0.0
87.0,0.0,986.6666666666667,27.213333333333335,0.0
85.0,0.0,986.6666666666667,27.226666666666667,0.0
84.0,0.0,986.6666666666667,27.24,0.0
83.0,0.0,986.6666666666667,27.253333333333334,0.0
83.0,0.0,986.6666666666667,27.266666666666666,0.0
82.0,0.0,986.6666666666667,27.28,0.0
81.0,0.0,986.6666666666667,27.293333333333333,0.0
81.0,0.0,986.6666666666667,27.30666666666667,0.0
80.0,0.0,986.6666666666667,27.32,0.0
80.0,0.0,986.6666666666667,27.333333333333332,0.0
80.0,0.0,986.6666666666667,27.346666666666668,0.0
79.0,0.0,986.6666666666667,27.36,0.0
79.0,0.0,986.6666666666667,27.373333333333335,0.0
79.0,0.0,986.6666666666667,27.386666666666667,0.0
79.0,0.0,986.6666666666667,27.4,0.0
78.0,0.0,986.6666666666667,27.413333333333334,0.0
78.0,0.0,986.6666666666667,27.426666666666666,0.0
78.0,0.0,986.6666666666667,27.44,0.0
77.0,0.0,986.6666666666667,27.453333333333333,0.0
77.0,0.0,986.6666666666667,27.466666666666665,0.0
77.0,0.0,986.6666666666667,27.48,0.0
77.0,0.0,986.6666666666667,27.493333333333332,0.0
77.0,0.0,986.6666666666667,27.506666666666668,0.0
77.0,0.0,986.6666666666667,27.52,0.0
77.0,0.0,986.6666666666667,27.533333333333335,0.0
77.0,0.0,986.6666666666667,27.546666666666667,0.0
77.0,0.0,986.6666666666667,27.56,0.0
77.0,0.0,986.6666666666667,27.573333333333334,0.0
77.0,0.0,986.6666666666667,27.586666666666666,0.0
78.0,0.0,986.6666666666667,27.6,0.0
82.0,0.0,986.6666666666667,27.613333333333333,0.0
88.0,0.0,986.6666666666667,27.626666666666665,0.0
96.0,0.0,986.6666666666667,27.64,0.0
108.0,0.0,986.6666666666667,27.653333333333332,0.0
120.0,0.0,986.6666666666667,27.666666666666668,0.0
131.0,0.0,986.6666666666667,27.68,0.0
140.0,0.0,986.6666666666667,27.69333333333333,0.0
145.0,0.0,986.6666666666667,27.706666666666667,0.0
148.0,0.0,986.6666666666667,27.72,0.0
149.0,0.0,986.6666666666667,27.733333333333334,0.0
147.0,1.0,946.6666666666666,27.746666666666666,0.0
145.0,0.0,946.6666666666666,27.76,0.0
143.0,0.0,946.6666666666666,27.773333333333333,0.0
140.0,0.0,946.6666666666666,27.786666666666665,0.0
138.0,0.0,946.6666666666666,27.8,0.0
136.0,0.0,946.6666666666666,27.813333333333333,0.0
134.0,0.0,946.6666666666666,27.826666666666668,0.0
131.0,0.0,946.6666666666666,27.84,0.0
129.0,0.0,946.6666666666666,27.85333333333333,0.0
126.0,0.0,946.6666666666666,27.866666666666667,0.0
123.0,0.0,946.6666666666666,27.88,0.0
119.0,0.0,946.6666666666666,27.893333333333334,0.0
116.0,0.0,946.6666666666666,27.906666666666666,0.0
113.0,0.0,946.6666666666666,27.92,0.0
111.0,0.0,946.6666666666666,27.933333333333334,0.0
109.0,0.0,946.6666666666666,27.946666666666665,0.0
108.0,0.0,946.6666666666666,27.96,0.0
106.0,0.0,946.6666666666666,27.973333333333333,0.0
105.0,0.0,946.6666666666666,27.986666666666668,0.0
103.0,0.0,946.6666666666666,28.0,0.0
102.0,0.0,946.6666666666666,28.013333333333332,0.0
100.0,0.0,946.6666666666666,28.026666666666667,0.0
98.0,0.0,946.6666666666666,28.04,0.0
97.0,0.0,946.6666666666666,28.053333333333335,0.0
95.0,0.0,946.6666666666666,28.066666666666666,0.0
93.0,0.0,946.6666666666666,28.08,0.0
92.0,0.0,946.6666666666666,28.093333333333334,0.0
90.0,0.0,946.6666666666666,28.106666666666666,0.0
89.0,0.0,946.6666666666666,28.12,0.0
88.0,0.0,946.6666666666666,28.133333333333333,0.0
87.0,0.0,946.6666666666666,28.14666666666667,0.0
86.0,0.0,946.6666666666666,28.16,0.0
85.0,0.0,946.6666666666666,28.173333333333332,0.0
85.0,0.0,946.6666666666666,28.186666666666667,0.0
84.0,0.0,946.6666666666666,28.2,0.0
83.0,0.0,946.6666666666666,28.213333333333335,0.0
83.0,0.0,946.6666666666666,28.226666666666667,0.0
82.0,0.0,946.6666666666666,28.24,0.0
82.0,0.0,946.6666666666666,28.253333333333334,0.0
82.0,0.0,946.6666666666666,28.266666666666666,0.0
81.0,0.0,946.6666666666666,28.28,0.0
81.0,0.0,946.6666666666666,28.293333333333333,0.0
81.0,0.0,946.6666666666666,28.30666666666667,0.0
80.0,0.0,946.6666666666666,28.32,0.0
80.0,0.0,946.6666666666666,28.333333333333332,0.0
80.0,0.0,946.6666666666666,28.346666666666668,0.0
80.0,0.0,946.6666666666666,28.36,0.0
79.0,0.0,946.6666666666666,28.373333333333335,0.0
79.0,0.0,946.6666666666666,28.386666666666667,0.0
79.0,0.0,946.6666666666666,28.4,0.0
78.0,0.0,946.6666666666666,28.413333333333334,0.0
78.0,0.0,946.6666666666666,28.426666666666666,0.0
78.0,0.0,946.6666666666666,28.44,0.0
78.0,0.0,946.6666666666666,28.453333333333333,0.0
78.0,0.0,946.6666666666666,28.466666666666665,0.0
78.0,0.0,946.6666666666666,28.48,0.0
79.0,0.0,946.6666666666666,28.493333333333332,0.0
79.0,0.0,946.6666666666666,28.506666666666668,0.0
79.0,0.0,946.6666666666666,28.52,0.0
79.0,0.0,946.6666666666666,28.533333333333335,0.0
79.0,0.0,946.6666666666666,28.546666666666667,0.0
81.0,0.0,946.6666666666666,28.56,0.0
84.0,0.0,946.6666666666666,28.573333333333334,0.0
91.0,0.0,946.6666666666666,28.586666666666666,0.0
100.0,0.0,946.6666666666666,28.6,0.0
111.0,0.0,946.6666666666666,28.613333333333333,0.0
123.0,0.0,946.6666666666666,28.626666666666665,0.0
133.0,0.0,946.6666666666666,28.64,0.0
141.0,0.0,946.6666666666666,28.653333333333332,0.0
146.0,0.0,946.6666666666666,28.666666666666668,0.0
148.0,0.0,946.6666666666666,28.68,0.0
148.0,1.0,946.6666666666666,28.69333333333333,0.0
147.0,0.0,946.6666666666666,28.706666666666667,0.0
145.0,0.0,946.6666666666666,28.72,0.0
143.0,0.0,946.6666666666666,28.733333333333334,0.0
141.0,0.0,946.6666666666666,28.746666666666666,0.0
139.0,0.0,946.6666666666666,28.76,0.0
137.0,0.0,946.6666666666666,28.773333333333333,0.0
135.0,0.0,946.6666666666666,28.786666666666665,0.0
133.0,0.0,946.6666666666666,28.8,0.0
131.0,0.0,946.6666666666666,28.813333333333333,0.0
128.0,0.0,946.6666666666666,28.826666666666668,0.0
124.0,0.0,946.6666666666666,28.84,0.0
121.0,0.0,946.6666666666666,28.85333333333333,0.0
118.0,0.0,946.6666666666666,28.866666666666667,0.0
115.0,0.0,946.6666666666666,28.88,0.0
112.0,0.0,946.6666666666666,28.893333333333334,0.0
110.0,0.0,946.6666666666666,28.906666666666666,0.0
109.0,0.0,946.6666666666666,28.92,0.0
107.0,0.0,946.6666666666666,28.933333333333334,0.0
106.0,0.0,946.6666666666666,28.946666666666665,0.0
104.0,0.0,946.6666666666666,28.96,0.0
103.0,0.0,946.6666666666666,28.973333333333333,0.0
101.0,0.0,946.6666666666666,28.986666666666668,0.0
100.0,0.0,946.6666666666666,29.0,0.0
98.0,0.0,946.6666666666666,29.013333333333332,0.0
96.0,0.0,946.6666666666666,29.026666666666667,0.0
95.0,0.0,946.6666666666666,29.04,0.0
93.0,0.0,946.6666666666666,29.053333333333335,0.0
92.0,0.0,946.6666666666666,29.066666666666666,0.0
90.0,0.0,946.6666666666666,29.08,0.0
89.0,0.0,946.6666666666666,29.093333333333334,0.0
88.0,0.0,946.6666666666666,29.106666666666666,0.0
87.0,0.0,946.6666666666666,29.12,0.0
86.0,0.0,946.6666666666666,29.133333333333333,0.0
85.0,0.0,946.6666666666666,29.14666666666667,0.0
84.0,0.0,946.6666666666666,29.16,0.0
83.0,0.0,946.6666666666666,29.173333333333332,0.0
83.0,0.0,946.6666666666666,29.186666666666667,0.0
82.0,0.0,946.6666666666666,29.2,0.0
82.0,0.0,946.6666666666666,29.213333333333335,0.0
82.0,0.0,946.6666666666666,29.226666666666667,0.0
81.0,0.0,946.6666666666666,29.24,0.0
81.0,0.0,946.6666666666666,29.253333333333334,4.0
81.0,0.0,946.6666666666666,29.266666666666666,0.0
80.0,0.0,946.6666666666666,29.28,0.0
80.0,0.0,946.6666666666666,29.293333333333333,0.0
80.0,0.0,946.6666666666666,29.30666666666667,0.0
79.0,0.0,946.6666666666666,29.32,0.0
79.0,0.0,946.6666666666666,29.333333333333332,0.0
79.0,0.0,946.6666666666666,29.346666666666668,0.0
78.0,0.0,946.6666666666666,29.36,0.0
78.0,0.0,946.6666666666666,29.373333333333335,0.0
78.0,0.0,946.6666666666666,29.386666666666667,0.0
77.0,0.0,946.6666666666666,29.4,0.0
77.0,0.0,946.6666666666666,29.413333333333334,0.0
77.0,0.0,946.6666666666666,29.426666666666666,0.0
77.0,0.0,946.6666666666666,29.44,0.0
78.0,0.0,946.6666666666666,29.453333333333333,0.0
78.0,0.0,946.6666666666666,29.466666666666665,0.0
78.0,0.0,946.6666666666666,29.48,0.0
78.0,0.0,946.6666666666666,29.493333333333332,0.0
78.0,0.0,946.6666666666666,29.506666666666668,0.0
78.0,0.0,946.6666666666666,29.52,0.0
78.0,0.0,946.6666666666666,29.533333333333335,0.0
78.0,0.0,946.6666666666666,29.546666666666667,0.0
79.0,0.0,946.6666666666666,29.56,0.0
80.0,0.0,946.6666666666666,29.573333333333334,0.0
83.0,0.0,946.6666666666666,29.586666666666666,0.0
88.0,0.0,946.6666666666666,29.6,0.0
96.0,0.0,946.6666666666666,29.613333333333333,0.0
107.0,0.0,946.6666666666666,29.626666666666665,0.0
118.0,0.0,946.6666666666666,29.64,0.0
129.0,0.0,946.6666666666666,29.653333333333332,0.0
138.0,0.0,946.6666666666666,29.666666666666668,0.0
144.0,0.0,946.6666666666666,29.68,0.0
147.0,0.0,946.6666666666666,29.69333333333333,0.0
148.0,0.0,946.6666666666666,29.706666666666667,0.0
148.0,1.0,1026.6666666666665,29.72,0.0
146.0,0.0,1026.6666666666665,29.733333333333334,0.0
144.0,0.0,1026.6666666666665,29.746666666666666,0.0
142.0,0.0,1026.6666666666665,29.76,0.0
140.0,0.0,1026.6666666666665,29.773333333333333,0.0
139.0,0.0,1026.6666666666665,29.786666666666665,0.0
137.0,0.0,1026.6666666666665,29.8,0.0
135.0,0.0,1026.6666666666665,29.813333333333333,0.0
133.0,0.0,1026.6666666666665,29.826666666666668,0.0
130.0,0.0,1026.6666666666665,29.84,0.0
127.0,0.0,1026.6666666666665,29.85333333333333,0.0
124.0,0.0,1026.6666666666665,29.866666666666667,0.0
120.0,0.0,1026.6666666666665,29.88,0.0
117.0,0.0,1026.6666666666665,29.893333333333334,0.0
115.0,0.0,1026.6666666666665,29.906666666666666,0.0
113.0,0.0,1026.6666666666665,29.92,0.0
111.0,0.0,1026.6666666666665,29.933333333333334,0.0
109.0,0.0,1026.6666666666665,29.946666666666665,0.0
108.0,0.0,1026.6666666666665,29.96,0.0
106.0,0.0,1026.6666666666665,29.973333333333333,0.0
105.0,0.0,1026.6666666666665,29.986666666666668,0.0
103.0,0.0,1026.6666666666665,30.0,0.0
102.0,0.0,1026.6666666666665,30.013333333333332,0.0
100.0,0.0,1026.6666666666665,30.026666666666667,0.0
99.0,0.0,1026.6666666666665,30.04,0.0
97.0,0.0,1026.6666666666665,30.053333333333335,0.0
96.0,0.0,1026.6666666666665,30.066666666666666,0.0
95.0,0.0,1026.6666666666665,30.08,0.0
94.0,0.0,1026.6666666666665,30.093333333333334,0.0
94.0,0.0,1026.6666666666665,30.106666666666666,0.0
93.0,0.0,1026.6666666666665,30.12,0.0
93.0,0.0,1026.6666666666665,30.133333333333333,0.0
92.0,0.0,1026.6666666666665,30.14666666666667,0.0
92.0,0.0,1026.6666666666665,30.16,0.0
91.0,0.0,1026.6666666666665,30.173333333333332,0.0
91.0,0.0,1026.6666666666665,30.186666666666667,0.0
90.0,0.0,1026.6666666666665,30.2,0.0
90.0,0.0,1026.6666666666665,30.213333333333335,0.0
89.0,0.0,1026.6666666666665,30.226666666666667,0.0
89.0,0.0,1026.6666666666665,30.24,0.0
88.0,0.0,1026.6666666666665,30.253333333333334,0.0
87.0,0.0,1026.6666666666665,30.266666666666666,0.0
87.0,0.0,1026.6666666666665,30.28,0.0
86.0,0.0,1026.6666666666665,30.293333333333333,0.0
85.0,0.0,1026.6666666666665,30.30666666666667,0.0
85.0,0.0,1026.6666666666665,30.32,0.0
84.0,0.0,1026.6666666666665,30.333333333333332,0.0
83.0,0.0,1026.6666666666665,30.346666666666668,0.0
83.0,0.0,1026.6666666666665,30.36,0.0
82.0,0.0,1026.6666666666665,30.373333333333335,0.0
81.0,0.0,1026.6666666666665,30.386666666666667,0.0
81.0,0.0,1026.6666666666665,30.4,0.0
80.0,0.0,1026.6666666666665,30.413333333333334,0.0
79.0,0.0,1026.6666666666665,30.426666666666666,0.0
79.0,0.0,1026.6666666666665,30.44,0.0
78.0,0.0,1026.6666666666665,30.453333333333333,0.0
78.0,0.0,1026.6666666666665,30.466666666666665,0.0
78.0,0.0,1026.6666666666665,30.48,0.0
77.0,0.0,1026.6666666666665,30.493333333333332,0.0
77.0,0.0,1026.6666666666665,30.506666666666668,0.0
77.0,0.0,1026.6666666666665,30.52,0.0
78.0,0.0,1026.6666666666665,30.533333333333335,0.0
80.0,0.0,1026.6666666666665,30.546666666666667,0.0
85.0,0.0,1026.6666666666665,30.56,0.0
92.0,0.0,1026.6666666666665,30.573333333333334,0.0
101.0,0.0,1026.6666666666665,30.586666666666666,0.0
111.0,0.0,1026.6666666666665,30.6,0.0
121.0,0.0,1026.6666666666665,30.613333333333333,0.0
128.0,0.0,1026.6666666666665,30.626666666666665,0.0
134.0,0.0,1026.6666666666665,30.64,0.0
137.0,0.0,1026.6666666666665,30.653333333333332,0.0
137.0,1.0,946.6666666666666,30.666666666666668,0.0
137.0,0.0,946.6666666666666,30.68,0.0
136.0,0.0,946.6666666666666,30.69333333333333,0.0
134.0,0.0,946.6666666666666,30.706666666666667,0.0
132.0,0.0,946.6666666666666,30.72,0.0
131.0,0.0,946.6666666666666,30.733333333333334,0.0
129.0,0.0,946.6666666666666,30.746666666666666,0.0
128.0,0.0,946.6666666666666,30.76,0.0
126.0,0.0,946.6666666666666,30.773333333333333,0.0
124.0,0.0,946.6666666666666,30.786666666666665,0.0
122.0,0.0,946.6666666666666,30.8,0.0
120.0,0.0,946.6666666666666,30.813333333333333,0.0
117.0,0.0,946.6666666666666,30.826666666666668,0.0
114.0,0.0,946.6666666666666,30.84,0.0
112.0,0.0,946.6666666666666,30.85333333333333,0.0
110.0,0.0,946.6666666666666,30.866666666666667,0.0
108.0,0.0,946.6666666666666,30.88,0.0
107.0,0.0,946.6666666666666,30.893333333333334,0.0
105.0,0.0,946.6666666666666,30.906666666666666,0.0
104.0,0.0,946.6666666666666,30.92,0.0
103.0,0.0,946.6666666666666,30.933333333333334,0.0
101.0,0.0,946.6666666666666,30.946666666666665,0.0
100.0,0.0,946.6666666666666,30.96,0.0
98.0,0.0,946.6666666666666,30.973333333333333,0.0
97.0,0.0,946.6666666666666,30.986666666666668,0.0
95.0,0.0,946.6666666666666,31.0,0.0
94.0,0.0,946.6666666666666,31.013333333333332,0.0
93.0,0.0,946.6666666666666,31.026666666666667,0.0
91.0,0.0,946.6666666666666,31.04,0.0
90.0,0.0,946.6666666666666,31.053333333333335,0.0
89.0,0.0,946.6666666666666,31.066666666666666,0.0
88.0,0.0,946.6666666666666,31.08,0.0
87.0,0.0,946.6666666666666,31.093333333333334,0.0
86.0,0.0,946.6666666666666,31.106666666666666,0.0
85.0,0.0,946.6666666666666,31.12,0.0
84.0,0.0,946.6666666666666,31.133333333333333,0.0
84.0,0.0,946.6666666666666,31.14666666666667,0.0
83.0,0.0,946.6666666666666,31.16,0.0
83.0,0.0,946.6666666666666,31.173333333333332,0.0
82.0,0.0,946.6666666666666,31.186666666666667,0.0
82.0,0.0,946.6666666666666,31.2,0.0
81.0,0.0,946.6666666666666,31.213333333333335,0.0
81.0,0.0,946.6666666666666,31.226666666666667,0.0
81.0,0.0,946.6666666666666,31.24,0.0
80.0,0.0,946.6666666666666,31.253333333333334,0.0
80.0,0.0,946.6666666666666,31.266666666666666,0.0
80.0,0.0,946.6666666666666,31.28,0.0
79.0,0.0,946.6666666666666,31.293333333333333,0.0
79.0,0.0,946.6666666666666,31.30666666666667,0.0
78.0,0.0,946.6666666666666,31.32,0.0
78.0,0.0,946.6666666666666,31.333333333333332,0.0
77.0,0.0,946.6666666666666,31.346666666666668,0.0
77.0,0.0,946.6666666666666,31.36,0.0
77.0,0.0,946.6666666666666,31.373333333333335,0.0
79.0,0.0,946.6666666666666,31.386666666666667,0.0
83.0,0.0,946.6666666666666,31.4,0.0
89.0,0.0,946.6666666666666,31.413333333333334,0.0
98.0,0.0,946.6666666666666,31.426666666666666,0.0
107.0,0.0,946.6666666666666,31.44,0.0
116.0,0.0,946.6666666666666,31.453333333333333,0.0
124.0,0.0,946.6666666666666,31.466666666666665,0.0
130.0,0.0,946.6666666666666,31.48,0.0
134.0,0.0,946.6666666666666,31.493333333333332,0.0
136.0,0.0,946.6666666666666,31.506666666666668,0.0
136.0,1.0,853.3333333333334,31.52,0.0
135.0,0.0,853.3333333333334,31.533333333333335,0.0
134.0,0.0,853.3333333333334,31.546666666666667,0.0
133.0,0.0,853.3333333333334,31.56,0.0
131.0,0.0,853.3333333333334,31.573333333333334,0.0
130.0,0.0,853.3333333333334,31.586666666666666,0.0
129.0,0.0,853.3333333333334,31.6,0.0
127.0,0.0,853.3333333333334,31.613333333333333,0.0
125.0,0.0,853.3333333333334,31.626666666666665,0.0
123.0,0.0,853.3333333333334,31.64,0.0
120.0,0.0,853.3333333333334,31.653333333333332,0.0
117.0,0.0,853.3333333333334,31.666666666666668,0.0
114.0,0.0,853.3333333333334,31.68,0.0
111.0,0.0,853.3333333333334,31.69333333333333,0.0
109.0,0.0,853.3333333333334,31.706666666666667,0.0
107.0,0.0,853.3333333333334,31.72,0.0
105.0,0.0,853.3333333333334,31.733333333333334,0.0
104.0,0.0,853.3333333333334,31.746666666666666,0.0
102.0,0.0,853.3333333333334,31.76,0.0
101.0,0.0,853.3333333333334,31.773333333333333,0.0
100.0,0.0,853.3333333333334,31.786666666666665,0.0
98.0,0.0,853.3333333333334,31.8,0.0
97.0,0.0,853.3333333333334,31.813333333333333,0.0
95.0,0.0,853.3333333333334,31.826666666666668,0.0
94.0,0.0,853.3333333333334,31.84,0.0
92.0,0.0,853.3333333333334,31.85333333333333,0.0
91.0,0.0,853.3333333333334,31.866666666666667,0.0
90.0,0.0,853.3333333333334,31.88,0.0
88.0,0.0,853.3333333333334,31.893333333333334,0.0
87.0,0.0,853.3333333333334,31.906666666666666,0.0
86.0,0.0,853.3333333333334,31.92,0.0
85.0,0.0,853.3333333333334,31.933333333333334,0.0
84.0,0.0,853.3333333333334,31.946666666666665,0.0
83.0,0.0,853.3333333333334,31.96,0.0
82.0,0.0,853.3333333333334,31.973333333333333,0.0
81.0,0.0,853.3333333333334,31.986666666666668,0.0
81.0,0.0,853.3333333333334,32.0,0.0
81.0,0.0,853.3333333333334,32.013333333333335,0.0
80.0,0.0,853.3333333333334,32.026666666666664,0.0
80.0,0.0,853.3333333333334,32.04,0.0
80.0,0.0,853.3333333333334,32.053333333333335,0.0
79.0,0.0,853.3333333333334,32.06666666666667,0.0
79.0,0.0,853.3333333333334,32.08,0.0
79.0,0.0,853.3333333333334,32.093333333333334,0.0
79.0,0.0,853.3333333333334,32.10666666666667,0.0
78.0,0.0,853.3333333333334,32.12,0.0
78.0,0.0,853.3333333333334,32.13333333333333,0.0
78.0,0.0,853.3333333333334,32.14666666666667,0.0
78.0,0.0,853.3333333333334,32.16,0.0
77.0,0.0,853.3333333333334,32.17333333333333,0.0
77.0,0.0,853.3333333333334,32.18666666666667,0.0
77.0,0.0,853.3333333333334,32.2,0.0
76.0,0.0,853.3333333333334,32.21333333333333,0.0
76.0,0.0,853.3333333333334,32.22666666666667,0.0
76.0,0.0,853.3333333333334,32.24,0.0
76.0,0.0,853.3333333333334,32.25333333333333,0.0
77.0,0.0,853.3333333333334,32.266666666666666,0.0
80.0,0.0,853.3333333333334,32.28,0.0
86.0,0.0,853.3333333333334,32.29333333333334,0.0
94.0,0.0,853.3333333333334,32.306666666666665,0.0
104.0,0.0,853.3333333333334,32.32,0.0
114.0,0.0,853.3333333333334,32.333333333333336,0.0
123.0,0.0,853.3333333333334,32.346666666666664,0.0
130.0,0.0,853.3333333333334,32.36,0.0
135.0,0.0,853.3333333333334,32.373333333333335,0.0
137.0,0.0,853.3333333333334,32.38666666666666,0.0
138.0,0.0,853.3333333333334,32.4,0.0
137.0,1.0,893.3333333333333,32.413333333333334,0.0
136.0,0.0,893.3333333333333,32.42666666666667,0.0
135.0,0.0,893.3333333333333,32.44,0.0
133.0,0.0,893.3333333333333,32.45333333333333,0.0
132.0,0.0,893.3333333333333,32.46666666666667,0.0
131.0,0.0,893.3333333333333,32.48,0.0
130.0,0.0,893.3333333333333,32.49333333333333,0.0
128.0,0.0,893.3333333333333,32.50666666666667,0.0
126.0,0.0,893.3333333333333,32.52,0.0
124.0,0.0,893.3333333333333,32.53333333333333,0.0
121.0,0.0,893.3333333333333,32.54666666666667,0.0
118.0,0.0,893.3333333333333,32.56,0.0
115.0,0.0,893.3333333333333,32.57333333333333,0.0
112.0,0.0,893.3333333333333,32.586666666666666,0.0
109.0,0.0,893.3333333333333,32.6,0.0
107.0,0.0,893.3333333333333,32.61333333333334,0.0
105.0,0.0,893.3333333333333,32.626666666666665,0.0
104.0,0.0,893.3333333333333,32.64,0.0
103.0,0.0,893.3333333333333,32.653333333333336,0.0
101.0,0.0,893.3333333333333,32.666666666666664,0.0
100.0,0.0,893.3333333333333,32.68,0.0
98.0,0.0,893.3333333333333,32.693333333333335,0.0
97.0,0.0,893.3333333333333,32.70666666666666,0.0
95.0,0.0,893.3333333333333,32.72,0.0
93.0,0.0,893.3333333333333,32.733333333333334,0.0
92.0,0.0,893.3333333333333,32.74666666666667,0.0
90.0,0.0,893.3333333333333,32.76,0.0
89.0,0.0,893.3333333333333,32.77333333333333,0.0
88.0,0.0,893.3333333333333,32.78666666666667,0.0
87.0,0.0,893.3333333333333,32.8,0.0
86.0,0.0,893.3333333333333,32.81333333333333,0.0
86.0,0.0,893.3333333333333,32.82666666666667,0.0
85.0,0.0,893.3333333333333,32.84,0.0
84.0,0.0,893.3333333333333,32.85333333333333,0.0
84.0,0.0,893.3333333333333,32.86666666666667,0.0
83.0,0.0,893.3333333333333,32.88,0.0
83.0,0.0,893.3333333333333,32.89333333333333,0.0
83.0,0.0,893.3333333333333,32.906666666666666,0.0
83.0,0.0,893.3333333333333,32.92,0.0
82.0,0.0,893.3333333333333,32.93333333333333,0.0
82.0,0.0,893.3333333333333,32.946666666666665,0.0
82.0,0.0,893.3333333333333,32.96,0.0
82.0,0.0,893.3333333333333,32.973333333333336,0.0
82.0,0.0,893.3333333333333,32.986666666666665,0.0
82.0,0.0,893.3333333333333,33.0,0.0
82.0,0.0,893.3333333333333,33.013333333333335,0.0
81.0,0.0,893.3333333333333,33.026666666666664,0.0
81.0,0.0,893.3333333333333,33.04,0.0
80.0,0.0,893.3333333333333,33.053333333333335,0.0
80.0,0.0,893.3333333333333,33.06666666666667,0.0
79.0,0.0,893.3333333333333,33.08,0.0
79.0,0.0,893.3333333333333,33.093333333333334,0.0
78.0,0.0,893.3333333333333,33.10666666666667,0.0
78.0,0.0,893.3333333333333,33.12,0.0
78.0,0.0,893.3333333333333,33.13333333333333,0.0
77.0,0.0,893.3333333333333,33.14666666666667,0.0
77.0,0.0,893.3333333333333,33.16,0.0
77.0,0.0,893.3333333333333,33.17333333333333,0.0
77.0,0.0,893.3333333333333,33.18666666666667,0.0
77.0,0.0,893.3333333333333,33.2,0.0
77.0,0.0,893.3333333333333,33.21333333333333,0.0
77.0,0.0,893.3333333333333,33.22666666666667,0.0
78.0,0.0,893.3333333333333,33.24,0.0
79.0,0.0,893.3333333333333,33.25333333333333,0.0
82.0,0.0,893.3333333333333,33.266666666666666,0.0
88.0,0.0,893.3333333333333,33.28,0.0
96.0,0.0,893.3333333333333,33.29333333333334,0.0
105.0,0.0,893.3333333333333,33.306666666666665,0.0
116.0,0.0,893.3333333333333,33.32,0.0
125.0,0.0,893.3333333333333,33.333333333333336,0.0
133.0,0.0,893.3333333333333,33.346666666666664,0.0
138.0,0.0,893.3333333333333,33.36,0.0
140.0,0.0,893.3333333333333,33.373333333333335,0.0
141.0,0.0,893.3333333333333,33.38666666666666,0.0
140.0,1.0,986.6666666666667,33.4,0.0
138.0,0.0,986.6666666666667,33.413333333333334,0.0
136.0,0.0,986.6666666666667,33.42666666666667,0.0
135.0,0.0,986.6666666666667,33.44,0.0
133.0,0.0,986.6666666666667,33.45333333333333,0.0
132.0,0.0,986.6666666666667,33.46666666666667,0.0
130.0,0.0,986.6666666666667,33.48,0.0
128.0,0.0,986.6666666666667,33.49333333333333,0.0
126.0,0.0,986.6666666666667,33.50666666666667,0.0
124.0,0.0,986.6666666666667,33.52,0.0
121.0,0.0,986.6666666666667,33.53333333333333,0.0
118.0,0.0,986.6666666666667,33.54666666666667,0.0
115.0,0.0,986.6666666666667,33.56,0.0
112.0,0.0,986.6666666666667,33.57333333333333,0.0
110.0,0.0,986.6666666666667,33.586666666666666,0.0
108.0,0.0,986.6666666666667,33.6,0.0
106.0,0.0,986.6666666666667,33.61333333333334,0.0
105.0,0.0,986.6666666666667,33.626666666666665,0.0
103.0,0.0,986.6666666666667,33.64,0.0
102.0,0.0,986.6666666666667,33.653333333333336,0.0
101.0,0.0,986.6666666666667,33.666666666666664,0.0
99.0,0.0,986.6666666666667,33.68,0.0
98.0,0.0,986.6666666666667,33.693333333333335,0.0
97.0,0.0,986.6666666666667,33.70666666666666,0.0
96.0,0.0,986.6666666666667,33.72,0.0
95.0,0.0,986.6666666666667,33.733333333333334,0.0
93.0,0.0,986.6666666666667,33.74666666666667,0.0
92.0,0.0,986.6666666666667,33.76,0.0
91.0,0.0,986.6666666666667,33.77333333333333,0.0
89.0,0.0,986.6666666666667,33.78666666666667,5.0
88.0,0.0,986.6666666666667,33.8,0.0
87.0,0.0,986.6666666666667,33.81333333333333,0.0
86.0,0.0,986.6666666666667,33.82666666666667,0.0
85.0,0.0,986.6666666666667,33.84,0.0
84.0,0.0,986.6666666666667,33.85333333333333,0.0
84.0,0.0,986.6666666666667,33.86666666666667,0.0
83.0,0.0,986.6666666666667,33.88,0.0
83.0,0.0,986.6666666666667,33.89333333333333,0.0
83.0,0.0,986.6666666666667,33.906666666666666,0.0
82.0,0.0,986.6666666666667,33.92,0.0
82.0,0.0,986.6666666666667,33.93333333333333,0.0
82.0,0.0,986.6666666666667,33.946666666666665,0.0
81.0,0.0,986.6666666666667,33.96,0.0
81.0,0.0,986.6666666666667,33.973333333333336,0.0
81.0,0.0,986.6666666666667,33.986666666666665,0.0
80.0,0.0,986.6666666666667,34.0,0.0
79.0,0.0,986.6666666666667,34.013333333333335,0.0
79.0,0.0,986.6666666666667,34.026666666666664,0.0
78.0,0.0,986.6666666666667,34.04,0.0
78.0,0.0,986.6666666666667,34.053333333333335,0.0
77.0,0.0,986.6666666666667,34.06666666666667,2.0
77.0,0.0,986.6666666666667,34.08,0.0
76.0,0.0,986.6666666666667,34.093333333333334,0.0
76.0,0.0,986.6666666666667,34.10666666666667,0.0
75.0,0.0,986.6666666666667,34.12,0.0
75.0,0.0,986.6666666666667,34.13333333333333,0.0
75.0,0.0,986.6666666666667,34.14666666666667,0.0
75.0,0.0,986.6666666666667,34.16,0.0
75.0,0.0,986.6666666666667,34.17333333333333,0.0
75.0,0.0,986.6666666666667,34.18666666666667,0.0
75.0,0.0,986.6666666666667,34.2,0.0
75.0,0.0,986.6666666666667,34.21333333333333,0.0
75.0,0.0,986.6666666666667,34.22666666666667,0.0
75.0,0.0,986.6666666666667,34.24,0.0
75.0,0.0,986.6666666666667,34.25333333333333,0.0
75.0,0.0,986.6666666666667,34.266666666666666,0.0
76.0,0.0,986.6666666666667,34.28,0.0
78.0,0.0,986.6666666666667,34.29333333333334,0.0
83.0,0.0,986.6666666666667,34.306666666666665,0.0
91.0,0.0,986.6666666666667,34.32,0.0
101.0,0.0,986.6666666666667,34.333333333333336,0.0
113.0,0.0,986.6666666666667,34.346666666666664,0.0
124.0,0.0,986.6666666666667,34.36,0.0
134.0,0.0,986.6666666666667,34.373333333333335,0.0
141.0,0.0,986.6666666666667,34.38666666666666,0.0
145.0,0.0,986.6666666666667,34.4,0.0
146.0,0.0,986.6666666666667,34.413333333333334,0.0
146.0,1.0,1026.6666666666665,34.42666666666667,0.0
144.0,0.0,1026.6666666666665,34.44,0.0
142.0,0.0,1026.6666666666665,34.45333333333333,0.0
140.0,0.0,1026.6666666666665,34.46666666666667,0.0
138.0,0.0,1026.6666666666665,34.48,0.0
136.0,0.0,1026.6666666666665,34.49333333333333,0.0
134.0,0.0,1026.6666666666665,34.50666666666667,0.0
132.0,0.0,1026.6666666666665,34.52,0.0
130.0,0.0,1026.6666666666665,34.53333333333333,0.0
128.0,0.0,1026.6666666666665,34.54666666666667,0.0
125.0,0.0,1026.6666666666665,34.56,0.0
121.0,0.0,1026.6666666666665,34.57333333333333,0.0
118.0,0.0,1026.6666666666665,34.586666666666666,0.0
114.0,0.0,1026.6666666666665,34.6,0.0
111.0,0.0,1026.6666666666665,34.61333333333334,0.0
109.0,0.0,1026.6666666666665,34.626666666666665,0.0
107.0,0.0,1026.6666666666665,34.64,0.0
105.0,0.0,1026.6666666666665,34.653333333333336,0.0
103.0,0.0,1026.6666666666665,34.666666666666664,0.0
102.0,0.0,1026.6666666666665,34.68,0.0
100.0,0.0,1026.6666666666665,34.693333333333335,0.0
99.0,0.0,1026.6666666666665,34.70666666666666,0.0
97.0,0.0,1026.6666666666665,34.72,0.0
95.0,0.0,1026.6666666666665,34.733333333333334,0.0
94.0,0.0,1026.6666666666665,34.74666666666667,0.0
93.0,0.0,1026.6666666666665,34.76,0.0
91.0,0.0,1026.6666666666665,34.77333333333333,0.0
90.0,0.0,1026.6666666666665,34.78666666666667,0.0
89.0,0.0,1026.6666666666665,34.8,0.0
89.0,0.0,1026.6666666666665,34.81333333333333,0.0
88.0,0.0,1026.6666666666665,34.82666666666667,0.0
87.0,0.0,1026.6666666666665,34.84,0.0
87.0,0.0,1026.6666666666665,34.85333333333333,0.0
86.0,0.0,1026.6666666666665,34.86666666666667,0.0
86.0,0.0,1026.6666666666665,34.88,0.0
86.0,0.0,1026.6666666666665,34.89333333333333,0.0
86.0,0.0,1026.6666666666665,34.906666666666666,0.0
86.0,0.0,1026.6666666666665,34.92,0.0
86.0,0.0,1026.6666666666665,34.93333333333333,0.0
86.0,0.0,1026.6666666666665,34.946666666666665,0.0
87.0,0.0,1026.6666666666665,34.96,0.0
87.0,0.0,1026.6666666666665,34.973333333333336,0.0
87.0,0.0,1026.6666666666665,34.986666666666665,0.0
87.0,0.0,1026.6666666666665,35.0,0.0
87.0,0.0,1026.6666666666665,35.013333333333335,0.0
87.0,0.0,1026.6666666666665,35.026666666666664,0.0
87.0,0.0,1026.6666666666665,35.04,0.0
87.0,0.0,1026.6666666666665,35.053333333333335,0.0
87.0,0.0,1026.6666666666665,35.06666666666667,0.0
87.0,0.0,1026.6666666666665,35.08,0.0
86.0,0.0,1026.6666666666665,35.093333333333334,0.0
86.0,0.0,1026.6666666666665,35.10666666666667,0.0
86.0,0.0,1026.6666666666665,35.12,0.0
85.0,0.0,1026.6666666666665,35.13333333333333,0.0
85.0,0.0,1026.6666666666665,35.14666666666667,0.0
85.0,0.0,1026.6666666666665,35.16,0.0
85.0,0.0,1026.6666666666665,35.17333333333333,0.0
85.0,0.0,1026.6666666666665,35.18666666666667,0.0
84.0,0.0,1026.6666666666665,35.2,0.0
84.0,0.0,1026.6666666666665,35.21333333333333,0.0
83.0,0.0,1026.6666666666665,35.22666666666667,0.0
82.0,0.0,1026.6666666666665,35.24,0.0
81.0,0.0,1026.6666666666665,35.25333333333333,0.0
80.0,0.0,1026.6666666666665,35.266666666666666,0.0
79.0,0.0,1026.6666666666665,35.28,0.0
79.0,0.0,1026.6666666666665,35.29333333333334,0.0
82.0,0.0,1026.6666666666665,35.306666666666665,0.0
88.0,0.0,1026.6666666666665,35.32,0.0
96.0,0.0,1026.6666666666665,35.333333333333336,0.0
106.0,0.0,1026.6666666666665,35.346666666666664,0.0
117.0,0.0,1026.6666666666665,35.36,0.0
126.0,0.0,1026.6666666666665,35.373333333333335,0.0
133.0,0.0,1026.6666666666665,35.38666666666666,0.0
138.0,0.0,1026.6666666666665,35.4,0.0
139.0,0.0,1026.6666666666665,35.413333333333334,0.0
139.0,1.0,1000.0,35.42666666666667,0.0
138.0,0.0,1000.0,35.44,0.0
136.0,0.0,1000.0,35.45333333333333,0.0
134.0,0.0,1000.0,35.46666666666667,0.0
132.0,0.0,1000.0,35.48,0.0
130.0,0.0,1000.0,35.49333333333333,0.0
128.0,0.0,1000.0,35.50666666666667,0.0
126.0,0.0,1000.0,35.52,0.0
124.0,0.0,1000.0,35.53333333333333,0.0
122.0,0.0,1000.0,35.54666666666667,0.0
119.0,0.0,1000.0,35.56,0.0
116.0,0.0,1000.0,35.57333333333333,0.0
112.0,0.0,1000.0,35.586666666666666,0.0
109.0,0.0,1000.0,35.6,0.0
107.0,0.0,1000.0,35.61333333333334,0.0
105.0,0.0,1000.0,35.626666666666665,0.0
103.0,0.0,1000.0,35.64,0.0
101.0,0.0,1000.0,35.653333333333336,0.0
100.0,0.0,1000.0,35.666666666666664,0.0
99.0,0.0,1000.0,35.68,0.0
97.0,0.0,1000.0,35.693333333333335,0.0
96.0,0.0,1000.0,35.70666666666666,0.0
95.0,0.0,1000.0,35.72,0.0
93.0,0.0,1000.0,35.733333333333334,0.0
92.0,0.0,1000.0,35.74666666666667,0.0
90.0,0.0,1000.0,35.76,0.0
89.0,0.0,1000.0,35.77333333333333,0.0
87.0,0.0,1000.0,35.78666666666667,0.0
86.0,0.0,1000.0,35.8,0.0
85.0,0.0,1000.0,35.81333333333333,0.0
84.0,0.0,1000.0,35.82666666666667,0.0
83.0,0.0,1000.0,35.84,0.0
82.0,0.0,1000.0,35.85333333333333,0.0
81.0,0.0,1000.0,35.86666666666667,0.0
81.0,0.0,1000.0,35.88,0.0
80.0,0.0,1000.0,35.89333333333333,0.0
80.0,0.0,1000.0,35.906666666666666,0.0
80.0,0.0,1000.0,35.92,0.0
80.0,0.0,1000.0,35.93333333333333,0.0
80.0,0.0,1000.0,35.946666666666665,0.0
80.0,0.0,1000.0,35.96,0.0
80.0,0.0,1000.0,35.973333333333336,0.0
80.0,0.0,1000.0,35.986666666666665,0.0
80.0,0.0,1000.0,36.0,0.0
79.0,0.0,1000.0,36.013333333333335,0.0
79.0,0.0,1000.0,36.026666666666664,0.0
79.0,0.0,1000.0,36.04,0.0
